time_sec,ecg
0.0,-173.11012
0.002,-192.73657
0.004,-194.23892
0.006,-183.31662
0.008,-168.60725
0.01,-157.66638
0.012,-154.4073
0.014,-158.05554
0.016,-164.60472
0.018,-169.28568
0.02,-169.3548
0.022,-164.86021
0.024,-158.10057
0.026,-151.86327
0.028,-148.19395
0.03,-147.3429
0.032,-148.09421
0.034,-148.59193
0.036,-147.80898
0.038,-145.71555
0.04,-143.09103
0.042,-140.6743
0.044,-139.03456
0.046,-138.02826
0.048,-137.0872
0.05,-135.46536
0.052,-133.14857
0.054,-130.50752
0.056,-128.08148
0.058,-125.97163
0.06,-124.28254
0.062,-122.75287
0.064,-121.07703
0.066,-118.878235
0.068,-116.523415
0.07,-114.47242
0.072,-113.07193
0.074,-112.01767
0.076,-111.17817
0.078,-110.23883
0.08,-109.06939
0.082,-107.43903
0.084,-106.29257
0.086,-106.24444
0.088,-107.56843
0.09,-109.52193
0.092,-111.78608
0.094,-113.50743
0.096,-114.07257
0.098,-112.98662
0.1,-111.36804
0.102,-110.38152
0.104,-111.070656
0.106,-113.40728
0.108,-117.527145
0.11,-122.59904
0.112,-127.58116
0.114,-131.22417
0.116,-133.839
0.118,-136.00774
0.12,-138.58817
0.122,-141.79123
0.124,-146.33363
0.126,-152.09439
0.128,-158.60089
0.13,-164.82402
0.132,-170.8925
0.134,-176.90424
0.136,-183.11649
0.138,-189.2441
0.14,-195.75406
0.142,-202.60454
0.144,-209.63336
0.146,-216.20834
0.148,-222.74507
0.15,-229.48454
0.152,-236.65054
0.154,-243.81676
0.156,-251.21567
0.158,-258.60736
0.16,-265.669
0.162,-271.65
0.164,-276.85013
0.166,-281.45123
0.168,-285.68173
0.17,-289.2111
0.172,-292.45724
0.174,-295.45447
0.176,-298.1897
0.178,-300.20047
0.18,-302.00885
0.182,-303.91968
0.184,-306.1948
0.186,-308.46664
0.188,-311.06195
0.19,-313.87265
0.192,-316.70148
0.194,-318.86838
0.196,-320.68518
0.198,-322.25455
0.2,-323.70593
0.202,-324.6335
0.204,-325.48962
0.206,-326.34213
0.208,-327.20816
0.21,-327.5831
0.212,-327.92468
0.214,-328.30786
0.216,-328.7091
0.218,-328.47638
0.22,-327.91315
0.222,-326.97018
0.224,-325.7072
0.226,-323.81375
0.228,-322.16965
0.23,-321.2182
0.232,-321.20435
0.234,-321.52872
0.236,-322.41562
0.238,-323.4494
0.24,-324.20624
0.242,-323.88235
0.244,-323.12466
0.246,-322.2773
0.248,-321.70465
0.25,-321.0593
0.252,-320.97247
0.254,-321.2924
0.256,-321.70465
0.258,-321.33246
0.26,-320.69247
0.262,-319.91434
0.264,-319.20306
0.266,-318.17294
0.268,-317.58228
0.27,-317.466
0.272,-317.70212
0.274,-317.52707
0.276,-317.47534
0.278,-317.53864
0.28,-317.70212
0.282,-317.34912
0.284,-317.1317
0.286,-317.0821
0.288,-317.20178
0.29,-316.91714
0.292,-316.96176
0.294,-317.41367
0.296,-318.20242
0.298,-318.52887
0.3,-318.81396
0.302,-318.89398
0.304,-318.70276
0.306,-317.7709
0.308,-317.07306
0.31,-316.98965
0.312,-317.70212
0.314,-318.52597
0.316,-319.8027
0.318,-321.14865
0.32,-322.205
0.322,-322.22583
0.324,-322.01852
0.326,-321.92725
0.328,-322.205
0.33,-322.2846
0.332,-322.6147
0.334,-322.86902
0.336,-322.7053
0.338,-321.39584
0.34,-319.80814
0.342,-318.42526
0.344,-317.70212
0.346,-317.27786
0.348,-317.76663
0.35,-318.89093
0.352,-320.2037
0.354,-320.72046
0.356,-320.96216
0.358,-321.0609
0.36,-321.20435
0.362,-320.916
0.364,-320.87393
0.366,-321.01917
0.368,-321.20435
0.37,-320.73242
0.372,-320.30768
0.374,-320.10135
0.376,-320.2037
0.378,-319.96774
0.38,-319.8986
0.382,-319.8476
0.384,-319.70337
0.386,-318.92365
0.388,-318.44028
0.39,-318.63425
0.392,-319.70337
0.394,-320.94055
0.396,-322.61752
0.398,-324.21497
0.4,-325.20688
0.402,-324.71234
0.404,-323.52682
0.406,-322.15942
0.408,-321.20435
0.41,-320.5296
0.412,-321.00406
0.414,-322.53342
0.416,-324.70657
0.418,-326.40845
0.42,-327.88962
0.422,-328.98846
0.424,-329.70975
0.426,-329.5899
0.428,-329.51123
0.43,-329.69797
0.432,-330.21005
0.434,-330.35184
0.436,-330.64844
0.438,-330.98148
0.44,-331.2107
0.442,-330.63522
0.444,-329.9414
0.446,-329.263
0.448,-328.7091
0.45,-327.7495
0.452,-327.12988
0.454,-326.94507
0.456,-327.20816
0.458,-327.27014
0.46,-327.75873
0.462,-328.6284
0.464,-329.70975
0.466,-330.1444
0.468,-330.39398
0.47,-330.39948
0.472,-330.21005
0.474,-329.39545
0.476,-328.91437
0.478,-329.02682
0.48,-329.70975
0.482,-330.0225
0.484,-330.13144
0.486,-329.59943
0.488,-328.2088
0.49,-325.55554
0.492,-322.9466
0.494,-321.26648
0.496,-321.20435
0.498,-322.4048
0.5,-325.22147
0.502,-328.955
0.504,-332.71167
0.506,-335.1962
0.508,-336.75046
0.51,-337.49243
0.512,-337.71484
0.514,-337.13297
0.516,-336.5753
0.518,-336.10907
0.52,-335.71356
0.522,-334.86804
0.524,-334.435
0.526,-334.68845
0.528,-335.71356
0.53,-336.73453
0.532,-338.0098
0.534,-339.108
0.536,-339.71613
0.538,-339.25964
0.54,-338.77924
0.542,-338.82513
0.544,-339.71613
0.546,-340.75012
0.548,-342.05988
0.55,-342.92877
0.552,-342.71802
0.554,-340.6359
0.556,-337.73038
0.558,-334.82324
0.56,-332.71167
0.562,-331.22827
0.564,-330.88754
0.566,-331.03577
0.568,-330.7104
0.57,-328.4974
0.572,-324.72806
0.574,-319.7161
0.576,-314.1999
0.578,-308.5064
0.58,-304.06732
0.582,-301.3192
0.584,-300.19098
0.586,-299.65457
0.588,-299.82068
0.59,-300.25266
0.592,-300.69128
0.594,-300.54742
0.596,-300.7172
0.598,-301.53268
0.6,-303.19287
0.602,-305.12427
0.604,-307.77908
0.606,-310.8
0.608,-313.69955
0.61,-315.51117
0.612,-316.60132
0.614,-316.94913
0.616,-316.70148
0.618,-315.7653
0.62,-314.9654
0.622,-314.4507
0.624,-314.1999
0.626,-313.936
0.628,-313.9248
0.63,-313.9174
0.632,-313.69955
0.634,-313.07965
0.636,-312.53662
0.638,-312.08887
0.64,-311.6983
0.642,-310.98892
0.644,-310.50723
0.646,-310.25888
0.648,-310.19733
0.65,-309.3834
0.652,-308.879
0.654,-309.08237
0.656,-310.19733
0.658,-310.97397
0.66,-311.95175
0.662,-312.78934
0.664,-313.19925
0.666,-312.2596
0.668,-310.96176
0.67,-309.7157
0.672,-308.69638
0.674,-307.02167
0.676,-304.80447
0.678,-301.48447
0.68,-296.68875
0.682,-289.7957
0.684,-281.4198
0.686,-271.14713
0.688,-257.6639
0.69,-238.37347
0.692,-211.77777
0.694,-176.9489
0.696,-135.08594
0.698,-89.30363
0.7,-45.361034
0.702,-8.255782
0.704,19.012094
0.706,36.716057
0.708,46.184704
0.71,49.476433
0.712,46.529602
0.714,34.19399
0.716,5.243302
0.718,-47.4907
0.72,-128.08148
0.722,-234.08934
0.724,-357.03476
0.726,-482.40594
0.728,-593.8778
0.73,-677.3012
0.732,-725.5588
0.734,-738.2237
0.736,-720.9586
0.738,-682.43787
0.74,-632.77625
0.742,-579.7362
0.744,-528.3361
0.746,-480.74982
0.748,-438.6142
0.75,-402.28134
0.752,-371.73648
0.754,-346.25592
0.756,-325.7096
0.758,-309.0737
0.76,-295.18777
0.762,-282.75317
0.764,-271.92426
0.766,-262.8058
0.768,-255.66264
0.77,-250.24663
0.772,-246.79332
0.774,-244.70158
0.776,-243.15468
0.778,-241.1449
0.78,-238.5928
0.782,-235.51297
0.784,-232.14769
0.786,-228.6166
0.788,-225.29642
0.79,-222.43153
0.792,-220.14005
0.794,-218.23537
0.796,-216.66724
0.798,-215.34236
0.8,-214.13623
0.802,-212.64015
0.804,-211.0296
0.806,-209.32166
0.808,-207.63208
0.81,-205.62434
0.812,-204.30809
0.814,-203.5805
0.816,-203.12923
0.818,-202.04092
0.82,-201.05139
0.822,-199.82896
0.824,-198.12604
0.826,-195.51924
0.828,-193.07396
0.83,-191.07227
0.832,-189.62064
0.834,-188.27434
0.836,-187.34718
0.838,-186.4319
0.84,-185.11777
0.842,-182.90149
0.844,-180.32408
0.846,-177.63702
0.848,-175.1114
0.85,-172.67159
0.852,-170.74791
0.854,-169.16147
0.856,-167.60663
0.858,-165.57869
0.86,-163.35762
0.862,-160.98691
0.864,-158.60089
0.866,-156.1527
0.868,-154.15955
0.87,-152.66498
0.872,-151.59644
0.874,-150.63614
0.876,-150.00452
0.878,-149.55423
0.88,-149.09485
0.882,-148.22878
0.884,-147.0757
0.886,-145.42024
0.888,-143.09103
0.89,-139.87384
0.892,-136.25008
0.894,-132.52661
0.896,-129.08212
0.898,-126.11179
0.9,-124.178215
0.902,-123.27123
0.904,-123.0783
0.906,-122.90541
0.908,-122.471596
0.91,-121.28078
0.912,-119.07575
0.914,-115.767746
0.916,-112.030304
0.918,-108.341515
0.92,-105.06684
0.922,-102.15584
0.924,-99.79578
0.926,-97.70034
0.928,-95.56079
0.93,-93.03585
0.932,-90.48523
0.934,-88.107185
0.936,-86.05474
0.938,-84.10716
0.94,-82.352486
0.942,-80.448364
0.944,-78.04965
0.946,-74.76945
0.948,-71.05428
0.95,-67.31628
0.952,-64.04074
0.954,-61.348507
0.956,-59.714752
0.958,-59.052593
0.96,-59.037556
0.962,-58.957233
0.964,-58.820587
0.966,-58.50802
0.968,-58.036922
0.97,-57.17969
0.972,-56.369328
0.974,-55.67204
0.976,-55.03501
0.978,-54.006237
0.98,-52.87304
0.982,-51.786644
0.984,-51.032463
0.986,-50.61758
0.988,-51.214684
0.99,-53.048786
0.992,-56.03565
0.994,-59.404896
0.996,-62.91444
0.998,-66.0638
1.0,-68.5436
1.002,-69.99524
1.004,-71.12084
1.006,-72.592026
1.008,-75.047745
1.01,-78.494896
1.012,-83.227646
1.014,-88.9329
1.016,-95.06047
1.018,-100.69696
1.02,-105.84301
1.022,-110.64885
1.024,-115.573524
1.026,-120.83796
1.028,-127.19438
1.03,-134.85732
1.032,-143.59135
1.034,-152.41797
1.036,-160.8047
1.038,-168.13574
1.04,-174.11076
1.042,-178.49397
1.044,-182.04344
1.046,-185.52748
1.048,-189.62064
1.05,-194.31535
1.052,-199.76697
1.054,-205.57463
1.056,-211.13431
1.058,-215.55856
1.06,-218.83247
1.062,-221.17719
1.064,-223.14195
1.066,-225.06685
1.068,-227.71378
1.07,-231.32082
1.072,-235.64992
1.074,-239.73175
1.076,-243.00429
1.078,-244.88156
1.08,-245.15596
1.082,-243.76102
1.084,-241.62915
1.086,-239.67343
1.088,-238.65182
1.09,-238.57283
1.092,-239.56084
1.094,-241.14159
1.096,-242.65437
1.098,-243.17702
1.1,-242.75085
1.102,-241.58028
1.104,-240.15277
1.106,-238.6734
1.108,-237.91592
1.11,-238.11264
1.112,-239.15215
1.114,-240.27812
1.116,-241.37407
1.118,-242.0741
1.12,-242.15405
1.122,-241.18509
1.124,-239.69443
1.126,-237.94081
1.128,-236.15022
1.13,-234.07242
1.132,-232.19528
1.134,-230.56113
1.136,-229.14577
1.138,-227.50504
1.14,-226.08635
1.142,-224.95381
1.144,-224.1426
1.146,-223.24553
1.148,-222.7079
1.15,-222.52327
1.152,-222.64163
1.154,-222.59479
1.156,-222.83728
1.158,-223.37502
1.16,-224.1426
1.162,-224.59761
1.164,-225.07077
1.166,-225.44597
1.168,-225.64354
1.17,-225.29553
1.172,-225.03407
1.174,-225.09892
1.176,-225.64354
1.178,-226.27075
1.18,-227.31863
1.182,-228.54814
1.184,-229.64609
1.186,-229.963
1.188,-229.85368
1.19,-229.37355
1.192,-228.64546
1.194,-227.44176
1.196,-226.38248
1.198,-225.60144
1.2,-225.14323
1.202,-224.61612
1.204,-224.4687
1.206,-224.67667
1.208,-225.14323
1.21,-225.33275
1.212,-225.56082
1.214,-225.70554
1.216,-225.64354
1.218,-224.93117
1.22,-224.07324
1.222,-223.24525
1.224,-222.64163
1.226,-222.04552
1.228,-221.96066
1.23,-222.27771
1.232,-222.64163
1.234,-222.19049
1.236,-220.92328
1.238,-218.67432
1.24,-215.63718
1.242,-212.02344
1.244,-209.0764
1.246,-207.5225
1.248,-207.63208
1.25,-208.71484
1.252,-210.38116
1.254,-211.62819
1.256,-211.63463
1.258,-209.74742
1.26,-206.7571
1.262,-203.45435
1.264,-200.62762
1.266,-198.36407
1.268,-197.09932
1.27,-196.49344
1.272,-196.12477
1.274,-195.45909
1.276,-195.13776
1.278,-195.5961
1.28,-197.1254
1.282,-199.24854
1.284,-201.82602
1.286,-204.03456
1.288,-205.1305
1.29,-204.4659
1.292,-202.81523
1.294,-200.95168
1.296,-199.627
1.298,-198.8361
1.3,-198.82333
1.302,-198.98698
1.304,-198.62636
1.306,-197.01306
1.308,-194.72975
1.31,-192.3786
1.312,-190.62126
1.314,-189.48448
1.316,-189.29814
1.318,-189.56389
1.32,-189.62064
1.322,-188.68979
1.324,-187.20605
1.326,-185.64056
1.328,-184.61745
1.33,-184.2908
1.332,-185.13728
1.334,-186.80563
1.336,-188.62
1.338,-189.5664
1.34,-189.60736
1.342,-188.70131
1.344,-187.11903
1.346,-184.98912
1.348,-183.17197
1.35,-182.01138
1.352,-181.61554
1.354,-181.5774
1.356,-182.14726
1.358,-183.20206
1.36,-184.61745
1.362,-185.93051
1.364,-187.41579
1.366,-188.9072
1.368,-190.12094
1.37,-190.36601
1.372,-189.74785
1.374,-188.1377
1.376,-185.61809
1.378,-182.1957
1.38,-178.83131
1.382,-176.15607
1.384,-174.61108
1.386,-173.96655
1.388,-174.37141
1.39,-175.30789
1.392,-176.11203
1.394,-175.86314
1.396,-174.64369
1.398,-172.47926
1.4,-169.6079
1.402,-166.04301
1.404,-162.54613
1.406,-159.47397
1.408,-157.09995
1.41,-155.30872
1.412,-154.66821
1.414,-155.29338
1.416,-157.09995
1.418,-159.45761
1.42,-162.32677
1.422,-165.30403
1.424,-168.10695
1.426,-170.36559
1.428,-172.63571
1.43,-175.18513
1.432,-178.11331
1.434,-180.96173
1.436,-183.60013
1.438,-185.46382
1.44,-186.11841
1.442,-185.38788
1.444,-183.80827
1.446,-181.88046
1.448,-180.11458
1.45,-178.9009
1.452,-178.44969
1.454,-178.47563
1.456,-178.61363
1.458,-178.75323
1.46,-179.06624
1.462,-179.65709
1.464,-180.6149
1.466,-181.65355
1.468,-183.014
1.47,-184.4641
1.472,-185.61809
1.474,-185.32623
1.476,-184.13086
1.478,-182.4864
1.48,-181.11522
1.482,-180.01146
1.484,-180.21614
1.486,-181.7813
1.488,-184.11713
1.49,-185.69348
1.492,-185.89737
1.494,-184.26254
1.496,-181.11522
1.498,-177.11148
1.5,-173.8549
1.502,-172.04251
1.504,-171.10886
1.506,-168.73816
1.508,-162.39641
1.51,-149.3442
1.512,-128.08148
1.514,-98.789024
1.516,-64.23227
1.518,-27.896591
1.52,7.004456
1.522,38.920033
1.524,67.35571
1.526,93.298134
1.528,117.5748
1.53,139.65707
1.532,155.80545
1.534,160.22633
1.536,146.09294
1.538,107.90445
1.54,42.731834
1.542,-47.316513
1.544,-155.09866
1.546,-269.23215
1.548,-377.13492
1.55,-466.6689
1.552,-528.8364
1.554,-559.1032
1.556,-558.7424
1.558,-533.10645
1.56,-490.31192
1.562,-438.99295
1.564,-387.38965
1.566,-341.15295
1.568,-303.19287
1.57,-273.69714
1.572,-251.79102
1.574,-235.46477
1.576,-222.64163
1.578,-211.421
1.58,-201.12834
1.582,-191.35516
1.584,-182.11586
1.586,-173.44283
1.588,-166.07794
1.59,-160.40663
1.592,-156.59962
1.594,-154.31177
1.596,-153.4247
1.598,-153.38803
1.6,-153.59772
1.602,-153.4288
1.604,-152.72893
1.606,-151.55403
1.608,-150.09549
1.61,-148.46347
1.612,-146.73439
1.614,-145.06609
1.616,-143.59135
1.618,-142.34038
1.62,-141.282
1.622,-140.52255
1.624,-140.08913
1.626,-139.64162
1.628,-139.25227
1.63,-138.74487
1.632,-138.08784
1.634,-137.03152
1.636,-136.5952
1.638,-136.85121
1.64,-137.58752
1.642,-137.98512
1.644,-138.2256
1.646,-137.7275
1.648,-136.08658
1.65,-133.05272
1.652,-129.61156
1.654,-126.543205
1.656,-124.579254
1.658,-123.94595
1.66,-124.92635
1.662,-126.94245
1.664,-129.08212
1.666,-130.25243
1.668,-130.16228
1.67,-128.67659
1.672,-126.08021
1.674,-122.784904
1.676,-119.66877
1.678,-117.19998
1.68,-115.573524
1.682,-114.58854
1.684,-114.2871
1.686,-114.38298
1.688,-114.57288
1.69,-114.463
1.692,-114.13023
1.694,-113.49875
1.696,-112.57162
1.698,-111.31588
1.7,-110.018776
1.702,-108.6553
1.704,-107.068115
1.706,-104.96119
1.708,-102.43672
1.71,-99.64472
1.712,-97.061745
1.714,-95.30414
1.716,-95.198616
1.718,-96.8514
1.72,-99.56334
1.722,-101.784775
1.724,-101.994774
1.726,-98.85037
1.728,-92.05856
1.73,-82.60053
1.732,-72.84204
1.734,-65.23586
1.736,-61.53915
1.738,-61.986237
1.74,-65.541664
1.742,-69.884415
1.744,-72.54615
1.746,-71.79875
1.748,-67.71821
1.75,-61.600838
1.752,-55.535328
1.754,-51.36079
1.756,-50.346027
1.758,-52.22094
1.76,-55.535328
1.762,-58.120106
1.764,-58.453495
1.766,-55.678078
1.768,-50.03183
1.77,-42.446136
1.772,-34.714462
1.774,-28.187098
1.776,-23.51496
1.778,-20.292583
1.78,-18.11009
1.782,-16.280138
1.784,-14.509231
1.786,-12.829116
1.788,-12.311457
1.79,-13.790202
1.792,-17.51114
1.794,-22.481277
1.796,-27.51438
1.798,-30.933739
1.8,-31.520052
1.802,-28.766687
1.804,-24.078253
1.806,-19.474955
1.808,-17.010822
1.81,-17.57836
1.812,-21.464476
1.814,-27.535133
1.816,-34.021645
1.818,-38.953613
1.82,-41.825012
1.822,-42.983128
1.824,-43.52769
1.826,-44.37492
1.828,-46.74759
1.83,-51.037285
1.832,-57.036285
1.834,-63.853653
1.836,-71.241486
1.838,-78.98498
1.84,-87.05538
1.842,-95.097496
1.844,-103.33106
1.846,-111.69653
1.848,-120.076385
1.85,-128.00337
1.852,-135.7355
1.854,-143.4087
1.856,-151.09612
1.858,-158.36617
1.86,-165.28754
1.862,-171.82924
1.864,-178.11331
1.866,-184.08156
1.868,-190.36661
1.87,-197.36963
1.872,-205.1305
1.874,-212.84293
1.876,-219.92665
1.878,-225.65524
1.88,-229.64609
1.882,-231.72203
1.884,-232.87596
1.886,-234.21863
1.888,-236.65054
1.89,-240.0978
1.892,-244.34016
1.894,-248.5155
1.896,-251.6601
1.898,-252.7709
1.9,-252.10907
1.902,-250.39772
1.904,-248.65819
1.906,-247.4164
1.908,-247.37839
1.91,-248.57565
1.912,-250.65945
1.914,-252.78082
1.916,-254.8534
1.918,-256.80502
1.92,-258.66455
1.922,-260.02634
1.924,-261.08948
1.926,-261.79282
1.928,-262.16678
1.93,-262.0238
1.932,-262.12857
1.934,-262.9521
1.936,-264.66837
1.938,-266.55493
1.94,-268.34824
1.942,-269.3622
1.944,-269.17123
1.946,-267.42044
1.948,-265.18665
1.95,-263.38556
1.952,-262.66708
1.954,-262.6144
1.956,-263.20233
1.958,-263.72607
1.96,-263.66772
1.962,-262.57727
1.964,-261.63474
1.966,-261.80002
1.968,-263.66772
1.97,-266.52753
1.972,-269.88937
1.974,-272.34662
1.976,-272.67346
1.978,-269.92245
1.98,-265.31253
1.982,-260.35565
1.984,-256.66327
1.986,-254.7395
1.988,-255.20416
1.99,-257.26923
1.992,-259.6652
1.994,-260.78
1.996,-260.73758
1.998,-259.9261
2.0,-259.16486
2.002,-258.7239
2.004,-259.56473
2.006,-261.57364
2.008,-264.16806
2.01,-266.10855
2.012,-267.52634
2.014,-268.43948
2.016,-269.17123
2.018,-269.629
2.02,-270.73663
2.022,-272.64206
2.024,-275.17505
2.026,-277.45895
2.028,-279.68515
2.03,-281.62762
2.032,-283.18015
2.034,-283.83984
2.036,-284.3721
2.038,-285.07697
2.04,-286.18207
2.042,-287.25885
2.044,-288.90256
2.046,-291.08887
2.048,-293.68683
2.05,-295.9812
2.052,-298.37015
2.054,-300.69724
2.056,-302.69257
2.058,-303.47098
2.06,-303.27914
2.062,-301.98294
2.064,-299.69064
2.066,-296.29803
2.068,-293.0922
2.07,-290.88266
2.072,-290.1846
2.074,-290.50763
2.076,-292.0913
2.078,-294.46234
2.08,-297.18906
2.082,-299.5762
2.084,-302.18347
2.086,-305.01514
2.088,-307.69574
2.09,-308.8568
2.092,-308.10645
2.094,-304.83447
2.096,-299.19034
2.098,-291.77985
2.1,-285.157
2.102,-281.4819
2.104,-282.1795
2.106,-286.85568
2.108,-294.71725
2.11,-303.47702
2.112,-310.69766
2.114,-314.22372
2.116,-314.3015
2.118,-311.91498
2.12,-308.69638
2.122,-305.61667
2.124,-304.0252
2.126,-303.71506
2.128,-303.6932
2.13,-302.3036
2.132,-299.6147
2.134,-296.12018
2.136,-293.18652
2.138,-292.01767
2.14,-294.5316
2.142,-300.89435
2.144,-309.69702
2.146,-317.7097
2.148,-322.4749
2.15,-321.68533
2.152,-314.7002
2.154,-302.44702
2.156,-288.91663
2.158,-278.31805
2.16,-274.1744
2.162,-277.52655
2.164,-288.09644
2.166,-302.77972
2.168,-317.20178
2.17,-326.59775
2.172,-328.81946
2.174,-323.2335
2.176,-311.19797
2.178,-294.86972
2.18,-278.1258
2.182,-263.8994
2.184,-254.16168
2.186,-249.20074
2.188,-249.50905
2.19,-254.27737
2.192,-262.16678
2.194,-271.00385
2.196,-279.85263
2.198,-287.39902
2.2,-292.6862
2.202,-294.68314
2.204,-294.15503
2.206,-291.7143
2.208,-288.18332
2.21,-283.83603
2.212,-280.1649
2.214,-277.93286
2.216,-277.67664
2.218,-279.11884
2.22,-282.9935
2.222,-289.1813
2.224,-297.18906
2.226,-305.65833
2.228,-314.01724
2.23,-320.9567
2.232,-325.20688
2.234,-325.5847
2.236,-322.3075
2.238,-315.9006
2.24,-307.69574
2.242,-299.51965
2.244,-293.80237
2.246,-292.04672
2.248,-294.68747
2.25,-300.7383
2.252,-308.87686
2.254,-316.8588
2.256,-322.7053
2.258,-324.6386
2.26,-323.74896
2.262,-321.4256
2.264,-319.20306
2.266,-316.97208
2.268,-315.8094
2.27,-315.50912
2.272,-315.70084
2.274,-315.38663
2.276,-315.8008
2.278,-317.76144
2.28,-321.70465
2.282,-326.5188
2.284,-331.75876
2.286,-336.119
2.288,-338.71548
2.29,-338.8939
2.292,-337.88266
2.294,-336.0949
2.296,-332.71167
2.298,-324.78464
2.3,-309.65665
2.302,-284.74347
2.304,-249.65883
2.306,-206.47679
2.308,-160.85602
2.31,-118.33538
2.312,-82.55251
2.314,-53.310802
2.316,-28.797323
2.318,-5.949331
2.32,16.010185
2.322,33.916973
2.324,38.879097
2.326,20.513037
2.328,-29.518778
2.33,-113.06015
2.332,-225.1245
2.334,-352.9454
2.336,-479.80524
2.338,-589.0276
2.34,-669.68665
2.342,-716.8647
2.344,-731.96564
2.346,-720.2486
2.348,-689.98615
2.35,-648.5569
2.352,-601.8829
2.354,-553.7896
2.356,-508.0732
2.358,-467.0722
2.36,-432.275
2.362,-403.7089
2.364,-381.59558
2.366,-364.7782
2.368,-351.72375
2.37,-340.5603
2.372,-331.1578
2.374,-323.3414
2.376,-317.20178
2.378,-312.2688
2.38,-308.96777
2.382,-306.8236
2.384,-305.19415
2.386,-303.09262
2.388,-300.8455
2.39,-298.61325
2.392,-296.68875
2.394,-294.9778
2.396,-293.9206
2.398,-293.5477
2.4,-293.68683
2.402,-293.72656
2.404,-293.49353
2.406,-292.82684
2.408,-291.68555
2.41,-289.8291
2.412,-287.6522
2.414,-285.49432
2.416,-283.68048
2.418,-281.85913
2.42,-280.82788
2.422,-280.38144
2.424,-280.17825
2.426,-279.26144
2.428,-278.57028
2.43,-277.93362
2.432,-277.17633
2.434,-275.6544
2.436,-274.34885
2.438,-273.23984
2.44,-272.17316
2.442,-270.4979
2.444,-268.8017
2.446,-267.02576
2.448,-265.1687
2.45,-262.92
2.452,-261.09238
2.454,-259.85068
2.456,-259.16486
2.458,-258.4185
2.46,-257.81888
2.462,-256.99805
2.464,-255.66264
2.466,-253.3575
2.468,-250.76811
2.47,-248.14966
2.472,-245.65628
2.474,-242.91438
2.476,-240.28043
2.478,-237.56027
2.48,-234.64928
2.482,-231.33104
2.484,-228.45496
2.486,-226.36887
2.488,-225.14323
2.49,-224.13
2.492,-223.21051
2.494,-221.69926
2.496,-219.1394
2.498,-215.25073
2.5,-211.06937
2.502,-207.35507
2.504,-204.63017
2.506,-202.58319
2.508,-201.16876
2.51,-199.57845
2.512,-197.1254
2.514,-193.34016
2.516,-189.22623
2.518,-185.71335
2.52,-183.6168
2.522,-182.89363
2.524,-183.5843
2.526,-184.70302
2.528,-185.11777
2.53,-183.7491
2.532,-181.02629
2.534,-177.54028
2.536,-174.11076
2.538,-171.0233
2.54,-168.91972
2.542,-167.48357
2.544,-166.10567
2.546,-163.89384
2.548,-161.19731
2.55,-158.29077
2.552,-155.59898
2.554,-153.04887
2.556,-151.18771
2.558,-149.82248
2.56,-148.59453
2.562,-146.79906
2.564,-144.89188
2.566,-143.0847
2.568,-141.59007
2.57,-140.01941
2.572,-138.75851
2.574,-137.6534
2.576,-136.58688
2.578,-135.1616
2.58,-134.19199
2.582,-134.10435
2.584,-135.08594
2.586,-136.43427
2.588,-138.09
2.59,-139.4518
2.592,-140.08913
2.594,-139.50356
2.596,-138.68958
2.598,-138.4885
2.6,-139.5888
2.602,-141.69405
2.604,-144.97263
2.606,-148.8241
2.608,-152.59708
2.61,-155.42487
2.612,-157.94695
2.614,-160.78682
2.616,-164.60472
2.618,-169.22873
2.62,-175.02727
2.622,-181.54718
2.624,-188.11967
2.626,-193.67467
2.628,-198.50873
2.63,-202.96878
2.632,-207.63208
2.634,-212.52777
2.636,-218.38957
2.638,-225.2164
2.64,-232.648
2.642,-239.64346
2.644,-246.18433
2.646,-252.14781
2.648,-257.6639
2.65,-262.5245
2.652,-267.4641
2.654,-272.70892
2.656,-278.17697
2.658,-283.016
2.66,-287.2078
2.662,-290.5596
2.664,-293.18652
2.666,-295.05093
2.668,-297.22913
2.67,-300.37247
2.672,-304.69385
2.674,-309.32147
2.676,-313.86194
2.678,-317.4944
2.68,-319.70337
2.682,-320.0787
2.684,-319.7546
2.686,-319.8365
2.688,-321.20435
2.69,-323.581
2.692,-326.87283
2.694,-330.1012
2.696,-332.21133
2.698,-332.0654
2.7,-330.2391
2.702,-327.58936
2.704,-325.20688
2.706,-323.40112
2.708,-322.9488
2.71,-323.60287
2.712,-324.70657
2.714,-325.0336
2.716,-324.75012
2.718,-324.00522
2.72,-323.2056
2.722,-322.20465
2.724,-321.76727
2.726,-321.86792
2.728,-322.205
2.73,-321.82956
2.732,-321.11447
2.734,-320.15366
2.736,-319.20306
2.738,-317.98398
2.74,-317.36066
2.742,-317.46893
2.744,-318.20242
2.746,-318.70132
2.748,-319.3108
2.75,-319.85217
2.752,-320.2037
2.754,-319.7383
2.756,-319.2024
2.758,-318.80438
2.76,-318.70276
2.762,-318.3785
2.764,-318.5335
2.766,-319.17545
2.768,-320.2037
2.77,-320.87106
2.772,-321.76038
2.774,-322.87793
2.776,-324.20624
2.778,-325.09244
2.78,-326.1751
2.782,-327.41916
2.784,-328.7091
2.786,-329.3072
2.788,-329.81888
2.79,-330.2785
2.792,-330.7104
2.794,-330.53067
2.796,-330.48285
2.798,-330.68933
2.8,-331.2107
2.802,-331.45496
2.804,-332.0821
2.806,-333.058
2.808,-334.21262
2.81,-334.6934
2.812,-334.96228
2.814,-334.95685
2.816,-334.71292
2.818,-333.79166
2.82,-333.1443
2.822,-333.0813
2.824,-333.71228
2.826,-334.30515
2.828,-335.22455
2.83,-336.136
2.832,-336.7142
2.834,-336.2047
2.836,-335.3819
2.838,-334.5988
2.84,-334.21262
2.842,-333.8759
2.844,-334.26163
2.846,-335.1805
2.848,-336.2139
2.85,-336.3361
2.852,-335.90784
2.854,-334.95038
2.856,-333.71228
2.858,-332.04517
2.86,-331.06235
2.862,-331.11234
2.864,-332.21133
2.866,-333.48392
2.868,-335.08203
2.87,-336.4789
2.872,-337.2145
2.874,-336.4939
2.876,-335.11493
2.878,-333.51846
2.88,-332.21133
2.882,-331.0307
2.884,-330.8745
2.886,-331.7177
2.888,-333.21198
2.89,-334.25342
2.892,-335.0569
2.894,-335.38757
2.896,-335.21326
2.898,-334.12137
2.9,-333.09738
2.902,-332.44244
2.904,-332.21133
2.906,-331.60284
2.908,-330.90625
2.91,-329.72235
2.912,-327.70847
2.914,-324.1667
2.916,-319.9803
2.918,-315.64383
2.92,-311.6983
2.922,-308.00903
2.924,-305.496
2.926,-304.16058
2.928,-303.6932
2.93,-303.05157
2.932,-302.50568
2.934,-301.87775
2.936,-301.19162
2.938,-300.10425
2.94,-299.6418
2.942,-300.14374
2.944,-301.69193
2.946,-303.51895
2.948,-305.90234
2.95,-308.4236
2.952,-310.69766
2.954,-311.97357
2.956,-312.93884
2.958,-313.7951
2.96,-314.7002
2.962,-315.21854
2.964,-315.85452
2.966,-316.41907
2.968,-316.70148
2.97,-316.3368
2.972,-315.88773
2.974,-315.47562
2.976,-315.20053
2.978,-314.9478
2.98,-315.07303
2.982,-315.28555
2.984,-315.20053
2.986,-314.36853
2.988,-313.16122
2.99,-311.68396
2.992,-310.19733
2.994,-308.48868
2.996,-307.71628
2.998,-308.1878
3.0,-309.69702
3.002,-310.45547
3.004,-310.6049
3.006,-309.7995
3.008,-308.19608
3.01,-305.45026
3.012,-303.41464
3.014,-302.9688
3.016,-304.1935
3.018,-305.4572
3.02,-306.04413
3.022,-304.7495
3.024,-301.19162
3.026,-295.48297
3.028,-289.73395
3.03,-285.18024
3.032,-281.6792
3.034,-276.68698
3.036,-267.49088
3.038,-250.74786
3.04,-224.64291
3.042,-189.49707
3.044,-149.42021
3.046,-109.32113
3.048,-73.54679
3.05,-43.789352
3.052,-20.27721
3.054,-0.9606997
3.056,16.010185
3.058,30.733416
3.06,38.817127
3.062,33.581997
3.064,7.504774
3.066,-44.58308
3.068,-124.68152
3.07,-228.66986
3.072,-347.2209
3.074,-467.1883
3.076,-575.8914
3.078,-662.08746
3.08,-718.45703
3.082,-742.0491
3.084,-735.6758
3.086,-705.183
3.088,-658.4189
3.09,-603.1479
3.092,-547.21344
3.094,-495.94366
3.096,-452.28772
3.098,-416.55258
3.1,-388.507
3.102,-366.5105
3.104,-348.72183
3.106,-333.16837
3.108,-319.49487
3.11,-307.3426
3.112,-296.68875
3.114,-287.234
3.116,-279.7074
3.118,-274.22003
3.12,-270.67218
3.122,-268.35214
3.124,-267.2725
3.126,-266.9057
3.128,-266.66965
3.13,-265.75235
3.132,-264.17123
3.134,-262.03363
3.136,-259.6652
3.138,-257.21622
3.14,-255.22476
3.142,-254.01633
3.144,-253.66136
3.146,-253.67935
3.148,-253.81654
3.15,-253.72359
3.152,-253.16106
3.154,-251.61143
3.156,-249.78815
3.158,-247.90614
3.16,-246.1566
3.162,-244.0128
3.164,-242.5151
3.166,-241.36621
3.168,-240.15277
3.17,-238.04039
3.172,-236.0731
3.174,-234.4026
3.176,-233.14832
3.178,-231.91544
3.18,-231.40634
3.182,-231.42886
3.184,-231.64737
3.186,-231.35454
3.188,-230.9594
3.19,-230.40012
3.192,-229.64609
3.194,-228.32895
3.196,-226.9687
3.198,-225.57307
3.2,-224.1426
3.202,-222.40694
3.204,-220.95619
3.206,-219.88501
3.208,-219.1394
3.21,-218.2013
3.212,-217.2289
3.214,-215.93256
3.216,-214.13623
3.218,-211.60107
3.22,-209.05147
3.222,-206.83217
3.224,-205.1305
3.226,-203.5976
3.228,-202.35847
3.23,-200.98961
3.232,-199.12668
3.234,-196.40039
3.236,-193.46878
3.238,-190.7553
3.24,-188.62
3.242,-186.91254
3.244,-185.84294
3.246,-184.93565
3.248,-183.6168
3.25,-181.22488
3.252,-178.11848
3.254,-174.59201
3.256,-171.10886
3.258,-167.85239
3.26,-165.49255
3.262,-164.01172
3.264,-163.10376
3.266,-162.05557
3.268,-160.86397
3.27,-159.25684
3.272,-157.09995
3.274,-154.1189
3.276,-150.84868
3.278,-147.46185
3.28,-144.09166
3.282,-140.54074
3.284,-137.31322
3.286,-134.49008
3.288,-132.08403
3.29,-129.7289
3.292,-127.77304
3.294,-126.11569
3.296,-124.579254
3.298,-122.61197
3.3,-120.515305
3.302,-118.2998
3.304,-116.073845
3.306,-113.661545
3.308,-111.74933
3.31,-110.5522
3.312,-110.07002
3.314,-109.6566
3.316,-109.42383
3.318,-109.10567
3.32,-108.56907
3.322,-107.45812
3.324,-106.55772
3.326,-106.330475
3.328,-107.068115
3.33,-108.27563
3.332,-110.111
3.334,-112.17439
3.336,-114.07257
3.338,-115.1425
3.34,-115.95776
3.342,-116.95371
3.344,-118.57543
3.346,-120.600426
3.348,-123.44455
3.35,-126.89547
3.352,-130.58307
3.354,-133.70648
3.356,-136.61516
3.358,-139.59291
3.36,-143.09103
3.362,-147.08247
3.364,-152.2272
3.366,-158.52522
3.368,-165.60535
3.37,-172.3969
3.372,-178.699
3.374,-184.24312
3.376,-189.12032
3.378,-193.3131
3.38,-197.87704
3.382,-203.52313
3.384,-210.634
3.386,-218.66003
3.388,-227.4868
3.39,-236.50714
3.392,-245.15596
3.394,-252.66576
3.396,-259.4437
3.398,-265.84134
3.4,-272.17316
3.402,-278.02206
3.404,-283.49417
3.406,-288.189
3.408,-291.68555
3.41,-293.31705
3.412,-293.65802
3.414,-293.35815
3.416,-293.18652
3.418,-293.2752
3.42,-294.25244
3.422,-296.03394
3.424,-298.1897
3.426,-299.68375
3.428,-300.45392
3.43,-300.40375
3.432,-299.69064
3.434,-298.15738
3.436,-296.5796
3.438,-295.34802
3.44,-294.68747
3.442,-294.1647
3.444,-294.16214
3.446,-294.68228
3.448,-295.6881
3.45,-296.6125
3.452,-297.80908
3.454,-299.21655
3.456,-300.69128
3.458,-301.5412
3.46,-302.06784
3.462,-302.25613
3.464,-302.19223
3.466,-301.5812
3.468,-301.23468
3.47,-301.53043
3.472,-302.69257
3.474,-304.18945
3.476,-306.3466
3.478,-308.82736
3.48,-311.19797
3.482,-312.54306
3.484,-313.2585
3.486,-313.41556
3.488,-313.19925
3.49,-312.29675
3.492,-311.51538
3.494,-310.99313
3.496,-310.69766
3.498,-309.953
3.5,-309.26782
3.502,-308.65958
3.504,-308.19608
3.506,-307.452
3.508,-307.20972
3.51,-307.62704
3.512,-308.69638
3.514,-309.69763
3.516,-310.98083
3.518,-312.25812
3.52,-313.19925
3.522,-312.98404
3.524,-312.10233
3.526,-310.6246
3.528,-308.69638
3.53,-305.9683
3.532,-303.30783
3.534,-300.99164
3.536,-299.19034
3.538,-297.4302
3.54,-296.39145
3.542,-296.1464
3.544,-296.68875
3.546,-297.37958
3.548,-298.703
3.55,-300.43918
3.552,-302.19223
3.554,-302.9212
3.556,-302.86652
3.558,-301.9065
3.56,-300.19098
3.562,-297.60617
3.564,-295.4432
3.566,-294.3605
3.568,-294.68747
3.57,-295.76978
3.572,-297.74274
3.574,-299.9374
3.576,-301.69193
3.578,-302.08914
3.58,-301.7876
3.582,-301.17624
3.584,-300.69128
3.586,-300.08044
3.588,-300.0062
3.59,-300.30966
3.592,-300.69128
3.594,-300.38116
3.596,-300.02408
3.598,-299.87457
3.6,-300.19098
3.602,-300.53198
3.604,-301.4731
3.606,-302.8034
3.608,-304.1935
3.61,-304.81378
3.612,-305.24548
3.614,-305.6491
3.616,-306.1948
3.618,-306.4032
3.62,-306.87335
3.622,-307.52164
3.624,-308.19608
3.626,-308.2366
3.628,-308.28244
3.63,-308.44104
3.632,-308.69638
3.634,-308.289
3.636,-307.5171
3.638,-306.06256
3.64,-303.6932
3.642,-299.8767
3.644,-295.60452
3.646,-291.50815
3.648,-288.18332
3.65,-285.45624
3.652,-284.0287
3.654,-283.73312
3.656,-284.1808
3.658,-284.41302
3.66,-284.84677
3.662,-285.54376
3.664,-286.68237
3.666,-287.89877
3.668,-289.93713
3.67,-292.78357
3.672,-296.18842
3.674,-299.21973
3.676,-302.12054
3.678,-304.6562
3.68,-306.6951
3.682,-307.7379
3.684,-308.48523
3.686,-309.1072
3.688,-309.69702
3.69,-309.8928
3.692,-310.1369
3.694,-310.29062
3.696,-310.19733
3.698,-309.5691
3.7,-308.89087
3.702,-308.2406
3.704,-307.69574
3.706,-307.1285
3.708,-307.02066
3.71,-307.2809
3.712,-307.69574
3.714,-307.60934
3.716,-307.4893
3.718,-307.34695
3.72,-307.19543
3.722,-306.12582
3.724,-305.18933
3.726,-304.79166
3.728,-305.19415
3.73,-305.35434
3.732,-305.94476
3.734,-306.7981
3.736,-307.69574
3.738,-307.6803
3.74,-307.45026
3.742,-307.12567
3.744,-306.6951
3.746,-305.29865
3.748,-303.20798
3.75,-300.08972
3.752,-295.6881
3.754,-289.2997
3.756,-281.38754
3.758,-271.51138
3.76,-258.66455
3.762,-240.91039
3.764,-217.67706
3.766,-188.78734
3.768,-155.59898
3.77,-120.53037
3.772,-88.02638
3.774,-61.565685
3.776,-43.02737
3.778,-31.795403
3.78,-27.149513
3.782,-28.090927
3.784,-35.5226
3.786,-52.546906
3.788,-85.36344
3.79,-139.33391
3.792,-216.63782
3.794,-313.57318
3.796,-421.70554
3.798,-527.8473
3.8,-617.89307
3.802,-680.0961
3.804,-709.50415
3.806,-707.1519
3.808,-679.43225
3.81,-635.10394
3.812,-584.1021
3.814,-533.73553
3.816,-488.31064
3.818,-448.94257
3.82,-416.11075
3.822,-389.00574
3.824,-366.7333
3.826,-348.11053
3.828,-333.18246
3.83,-321.42557
3.832,-312.1986
3.834,-304.36603
3.836,-297.95395
3.838,-292.62573
3.84,-288.18332
3.842,-284.10147
3.844,-280.90048
3.846,-278.61255
3.848,-277.17633
3.85,-276.045
3.852,-275.36276
3.854,-274.85687
3.856,-274.1744
3.858,-272.65756
3.86,-270.3981
3.862,-267.59454
3.864,-264.66837
3.866,-261.80856
3.868,-259.6873
3.87,-258.6295
3.872,-258.66455
3.874,-259.11945
3.876,-260.02585
3.878,-260.98154
3.88,-261.66647
3.882,-261.29053
3.884,-260.7849
3.886,-260.10498
3.888,-259.16486
3.89,-257.29227
3.892,-255.55838
3.894,-253.9006
3.896,-252.16042
3.898,-249.71135
3.9,-247.40125
3.902,-245.35054
3.904,-243.655
3.906,-241.9372
3.908,-240.86325
3.91,-240.35007
3.912,-240.15277
3.914,-239.55551
3.916,-238.89372
3.918,-238.08119
3.92,-237.15086
3.922,-235.86983
3.924,-235.00801
3.926,-234.76672
3.928,-235.1496
3.93,-235.57216
3.932,-236.2075
3.934,-236.68077
3.936,-236.65054
3.938,-235.57083
3.94,-234.02065
3.942,-232.27605
3.944,-230.64673
3.946,-229.00949
3.948,-227.92302
3.95,-227.25233
3.952,-226.64418
3.954,-225.32283
3.956,-223.4666
3.958,-221.01631
3.96,-218.13878
3.962,-214.84802
3.964,-212.06099
3.966,-210.12917
3.968,-209.13304
3.97,-208.52579
3.972,-208.37819
3.974,-208.22241
3.976,-207.63208
3.978,-206.02972
3.98,-203.94754
3.982,-201.6911
3.984,-199.627
3.986,-197.70064
3.988,-196.49782
3.99,-195.91971
3.992,-195.62445
3.994,-194.81688
3.996,-193.63846
3.998,-192.01968
4.0,-190.12094
4.002,-187.90514
4.004,-186.22324
4.006,-185.32394
4.008,-185.11777
4.01,-184.79794
4.012,-184.28487
4.014,-183.12544
4.016,-181.11522
4.018,-178.01256
4.02,-174.85577
4.022,-172.37454
4.024,-171.10886
4.026,-170.7406
4.028,-171.4265
4.03,-172.49475
4.032,-173.11012
4.034,-172.13521
4.036,-169.88972
4.038,-166.78336
4.04,-163.60408
4.042,-160.76668
4.044,-159.51129
4.046,-160.19608
4.048,-162.60344
4.05,-165.55511
4.052,-168.6917
4.054,-171.33342
4.056,-173.11012
4.058,-173.55438
4.06,-173.60744
4.062,-173.9441
4.064,-175.1114
4.066,-176.82408
4.068,-179.46104
4.07,-182.70538
4.072,-186.11841
4.074,-188.84114
4.076,-191.29897
4.078,-193.7666
4.08,-196.62509
4.082,-199.66861
4.084,-203.50882
4.086,-208.09293
4.088,-213.13559
4.09,-217.75412
4.092,-222.17169
4.094,-226.40785
4.096,-230.64673
4.098,-234.65504
4.1,-239.19023
4.102,-244.5088
4.104,-250.65945
4.106,-256.97595
4.108,-263.58798
4.11,-270.13364
4.112,-276.1757
4.114,-280.8051
4.116,-284.24112
4.118,-286.5818
4.12,-288.18332
4.122,-289.11298
4.124,-290.44562
4.126,-292.7417
4.128,-296.18842
4.13,-300.04077
4.132,-304.14774
4.134,-307.87463
4.136,-310.69766
4.138,-311.92273
4.14,-312.2019
4.142,-312.097
4.144,-312.1986
4.146,-312.4086
4.148,-313.2735
4.15,-314.6534
4.152,-316.20114
4.154,-317.0622
4.156,-317.515
4.158,-317.65598
4.16,-317.70212
4.162,-317.38052
4.164,-317.2913
4.166,-317.4536
4.168,-317.70212
4.17,-317.28485
4.172,-316.52692
4.174,-315.4526
4.176,-314.1999
4.178,-312.4759
4.18,-311.03497
4.182,-310.09192
4.184,-309.69702
4.186,-309.23404
4.188,-309.08987
4.19,-309.1292
4.192,-309.1967
4.194,-308.63654
4.196,-307.99002
4.198,-307.32294
4.2,-306.6951
4.202,-305.6138
4.204,-304.73456
4.206,-304.11115
4.208,-303.6932
4.21,-302.83658
4.212,-302.08548
4.214,-301.49884
4.216,-301.19162
4.218,-300.77924
4.22,-301.02594
4.222,-301.93362
4.224,-303.19287
4.226,-303.6964
4.228,-303.50986
4.23,-302.32037
4.232,-300.19098
4.234,-297.08597
4.236,-294.4872
4.238,-293.23254
4.24,-293.68683
4.242,-295.00513
4.244,-297.0015
4.246,-298.66977
4.248,-299.19034
4.25,-297.77524
4.252,-295.51984
4.254,-293.36252
4.256,-292.18588
4.258,-291.88016
4.26,-292.90628
4.262,-294.6233
4.264,-296.18842
4.266,-296.48178
4.268,-296.06094
4.27,-295.40884
4.272,-295.18777
4.274,-295.3831
4.276,-296.64935
4.278,-298.53485
4.28,-300.19098
4.282,-300.26398
4.284,-298.90857
4.286,-296.31238
4.288,-293.18652
4.29,-290.03488
4.292,-288.40683
4.294,-288.8422
4.296,-291.18524
4.298,-294.15106
4.3,-297.28217
4.302,-299.6431
4.304,-300.69128
4.306,-299.9454
4.308,-298.60233
4.31,-297.48874
4.312,-297.18906
4.314,-297.26413
4.316,-297.9042
4.318,-298.4311
4.32,-298.1897
4.322,-296.4055
4.324,-293.98138
4.326,-291.66373
4.328,-290.1846
4.33,-289.3723
4.332,-289.61975
4.334,-290.21948
4.336,-290.1846
4.338,-288.17822
4.34,-284.51306
4.342,-279.5752
4.344,-274.1744
4.346,-268.73444
4.348,-264.6004
4.35,-262.12964
4.352,-261.16614
4.354,-260.70966
4.356,-260.78595
4.358,-260.9997
4.36,-261.16614
4.362,-260.83804
4.364,-260.87112
4.366,-261.58984
4.368,-263.16742
4.37,-265.07657
4.372,-267.72736
4.374,-270.8672
4.376,-274.1744
4.378,-276.8847
4.38,-279.3715
4.382,-281.5203
4.384,-283.18015
4.386,-283.76788
4.388,-283.65128
4.39,-282.7586
4.392,-281.17886
4.394,-279.0172
4.396,-277.20157
4.398,-276.17868
4.4,-276.1757
4.402,-276.96448
4.404,-278.57944
4.406,-280.3817
4.408,-281.6792
4.41,-281.78372
4.412,-281.0017
4.414,-279.51477
4.416,-277.67664
4.418,-275.241
4.42,-273.3536
4.422,-272.3563
4.424,-272.17316
4.426,-271.36963
4.428,-270.2608
4.43,-268.74817
4.432,-267.16995
4.434,-265.48248
4.436,-265.22687
4.438,-266.92047
4.44,-270.17188
4.442,-273.05814
4.444,-274.43033
4.446,-273.0187
4.448,-268.67093
4.45,-262.03333
4.452,-255.51988
4.454,-250.5113
4.456,-246.6569
4.458,-241.02783
4.46,-230.40982
4.462,-211.47215
4.464,-183.11649
4.466,-147.06717
4.468,-108.91335
4.47,-74.61988
4.472,-48.530872
4.474,-31.158945
4.476,-20.620613
4.478,-12.863605
4.48,-5.003183
4.482,2.590517
4.484,3.9587533
4.486,-9.456855
4.488,-46.02928
4.49,-109.79776
4.492,-199.3541
4.494,-305.90997
4.496,-415.7645
4.498,-513.45825
4.5,-587.0862
4.502,-629.53076
4.504,-639.9071
4.506,-622.32983
4.508,-585.32983
4.51,-537.9749
4.512,-488.31064
4.514,-441.72052
4.516,-401.94208
4.518,-369.87744
4.52,-344.7193
4.522,-324.37674
4.524,-307.6407
4.526,-293.26895
4.528,-280.67856
4.53,-269.47617
4.532,-260.52936
4.534,-254.12997
4.536,-250.15913
4.538,-247.6643
4.54,-246.33997
4.542,-245.48041
4.544,-244.65564
4.546,-243.47572
4.548,-242.58589
4.55,-242.29698
4.552,-242.65437
4.554,-243.08566
4.556,-243.29219
4.558,-242.86382
4.56,-241.65373
4.562,-239.65778
4.564,-237.56433
4.566,-236.0722
4.568,-235.64992
4.57,-236.0456
4.572,-236.97536
4.574,-237.73665
4.576,-237.65118
4.578,-235.90279
4.58,-233.24414
4.582,-230.12456
4.584,-227.1445
4.586,-224.28268
4.588,-222.73433
4.59,-222.23212
4.592,-222.14131
4.594,-221.37646
4.596,-220.36183
4.598,-219.06073
4.6,-217.63846
4.602,-215.99059
4.604,-214.86862
4.606,-214.20505
4.608,-213.63591
4.61,-212.3515
4.612,-210.45091
4.614,-207.81618
4.616,-204.63017
4.618,-201.04839
4.62,-198.06744
4.622,-196.09055
4.624,-195.12413
4.626,-194.46269
4.628,-193.8413
4.63,-192.54951
4.632,-190.12094
4.634,-186.28638
4.636,-181.98196
4.638,-178.01402
4.64,-175.1114
4.642,-173.35767
4.644,-173.04002
4.646,-173.56953
4.648,-174.11076
4.65,-173.67114
4.652,-172.30934
4.654,-170.14142
4.656,-167.60663
4.658,-164.99632
4.66,-163.13435
4.662,-162.10709
4.664,-161.6028
4.666,-160.813
4.668,-159.5664
4.67,-157.50905
4.672,-154.59834
4.674,-150.87329
4.676,-147.24483
4.678,-144.2298
4.68,-142.0904
4.682,-140.48967
4.684,-139.47865
4.686,-138.62756
4.688,-137.58752
4.69,-135.98212
4.692,-134.37048
4.694,-133.03053
4.696,-132.08403
4.698,-131.08383
4.7,-130.04875
4.702,-128.603
4.704,-126.58053
4.706,-123.9101
4.708,-121.59323
4.71,-120.35389
4.712,-120.576706
4.714,-121.71043
4.716,-123.35017
4.718,-124.440865
4.72,-124.07893
4.722,-121.58947
4.724,-117.8114
4.726,-113.77946
4.728,-110.57034
4.73,-108.44092
4.732,-107.79427
4.734,-108.099304
4.736,-108.56907
4.738,-108.19803
4.74,-107.30856
4.742,-106.373985
4.744,-106.067474
4.746,-106.470314
4.748,-108.099464
4.75,-110.66576
4.752,-113.57225
4.754,-115.78218
4.756,-117.42893
4.758,-118.7065
4.76,-120.076385
4.762,-121.59418
4.764,-123.99836
4.766,-127.39975
4.768,-131.58371
4.77,-135.6911
4.772,-139.72478
4.774,-143.52124
4.776,-147.09358
4.778,-150.14217
4.78,-153.30678
4.782,-156.89781
4.784,-161.1025
4.786,-165.4988
4.788,-170.40907
4.79,-175.80025
4.792,-181.61554
4.794,-187.34837
4.796,-193.38287
4.798,-199.80951
4.8,-206.63145
4.802,-213.24408
4.804,-219.7784
4.806,-225.99341
4.808,-231.64737
4.81,-236.13231
4.812,-239.8873
4.814,-243.25604
4.816,-246.6569
4.818,-249.98245
4.82,-253.81712
4.822,-258.25586
4.824,-263.16742
4.826,-267.786
4.828,-272.13617
4.83,-275.99158
4.832,-279.1776
4.834,-281.1218
4.836,-282.23953
4.838,-282.80063
4.84,-283.18015
4.842,-283.3127
4.844,-283.9653
4.846,-285.42728
4.848,-287.683
4.85,-289.92114
4.852,-292.04794
4.854,-293.6897
4.856,-294.68747
4.858,-294.703
4.86,-294.60425
4.862,-294.98026
4.864,-296.18842
4.866,-297.67996
4.868,-299.48648
4.87,-301.11746
4.872,-302.19223
4.874,-302.1675
4.876,-301.8999
4.878,-302.0657
4.88,-303.19287
4.882,-304.85266
4.884,-307.1693
4.886,-309.50595
4.888,-311.19797
4.89,-311.358
4.892,-310.6716
4.894,-309.7356
4.896,-309.1967
4.898,-308.9111
4.9,-309.44217
4.902,-310.51434
4.904,-311.6983
4.906,-312.1535
4.908,-312.4567
4.91,-312.88998
4.912,-313.69955
4.914,-314.34537
4.916,-315.1563
4.918,-315.73416
4.92,-315.70084
4.922,-314.41666
4.924,-312.81247
4.926,-311.54257
4.928,-311.19797
4.93,-311.4853
4.932,-312.81165
4.934,-314.6294
4.936,-316.20114
4.938,-316.396
4.94,-315.68427
4.942,-314.4208
4.944,-313.19925
4.946,-312.07388
4.948,-312.00104
4.95,-312.99872
4.952,-314.7002
4.954,-316.0309
4.956,-317.10876
4.958,-317.6827
4.96,-317.70212
4.962,-316.78336
4.964,-315.7599
4.966,-314.8695
4.968,-314.1999
4.97,-313.17477
4.972,-312.31583
4.974,-311.531
4.976,-310.69766
4.978,-309.20084
4.98,-307.7188
4.982,-306.46622
4.984,-305.69446
4.986,-305.0821
4.988,-305.39938
4.99,-306.5777
4.992,-308.19608
4.994,-309.03543
4.996,-309.10367
4.998,-308.10526
5.0,-306.1948
5.002,-303.45563
5.004,-301.4503
5.006,-300.9754
5.008,-302.19223
5.01,-303.92157
5.012,-305.60056
5.014,-305.9701
5.016,-304.1935
5.018,-299.71774
5.02,-294.08698
5.022,-288.69235
5.024,-284.6811
5.026,-281.89178
5.028,-280.5203
5.03,-279.6059
5.032,-278.17697
5.034,-275.29205
5.036,-272.0768
5.038,-269.66632
5.04,-269.17123
5.042,-270.5459
5.044,-274.08032
5.046,-278.7295
5.048,-283.18015
5.05,-285.9408
5.052,-287.49066
5.054,-288.4439
5.056,-289.6843
5.058,-291.32138
5.06,-294.07764
5.062,-297.48047
5.064,-300.69128
5.066,-302.46918
5.068,-303.11258
5.07,-302.85483
5.072,-302.19223
5.074,-301.24747
5.076,-300.72766
5.078,-300.487
5.08,-300.19098
5.082,-299.41183
5.084,-298.63678
5.086,-298.1254
5.088,-298.1897
5.09,-298.86655
5.092,-300.48868
5.094,-302.6328
5.096,-304.69385
5.098,-305.7024
5.1,-306.1373
5.102,-306.21637
5.104,-306.1948
5.106,-305.25992
5.108,-304.28897
5.11,-303.41046
5.112,-302.69257
5.114,-301.28955
5.116,-300.07397
5.118,-299.21338
5.12,-298.69
5.122,-297.63025
5.124,-296.4314
5.126,-295.05664
5.128,-293.68683
5.13,-292.12115
5.132,-291.31708
5.134,-291.2634
5.136,-291.18524
5.138,-288.99606
5.14,-283.28098
5.142,-272.20166
5.144,-254.662
5.146,-230.28827
5.148,-201.09581
5.15,-169.3954
5.152,-137.58752
5.154,-106.99406
5.156,-79.049126
5.158,-53.788242
5.16,-31.019733
5.162,-10.830443
5.164,3.9815345
5.166,9.254562
5.168,-0.5003183
5.17,-30.265173
5.172,-84.19132
5.174,-162.1479
5.176,-259.16486
5.178,-365.19766
5.18,-468.3062
5.182,-555.6459
5.184,-616.89246
5.186,-646.1054
5.188,-644.2687
5.19,-617.0446
5.192,-573.36475
5.194,-522.4683
5.196,-473.1198
5.198,-430.56598
5.2,-396.7524
5.202,-370.59085
5.204,-350.68875
5.206,-334.92487
5.208,-321.70465
5.21,-309.76047
5.212,-299.44473
5.214,-290.78836
5.216,-283.68048
5.218,-277.34317
5.22,-271.8777
5.222,-266.89566
5.224,-262.16678
5.226,-257.30573
5.228,-253.09988
5.23,-249.95673
5.232,-248.15787
5.234,-247.38776
5.236,-247.76866
5.238,-248.88394
5.24,-250.15913
5.242,-250.74141
5.244,-250.51357
5.246,-249.54321
5.248,-248.15787
5.25,-246.50034
5.252,-245.09312
5.254,-244.16267
5.256,-243.655
5.258,-242.85202
5.26,-241.87729
5.262,-240.48584
5.264,-238.65182
5.266,-236.00291
5.268,-233.891
5.27,-232.59557
5.272,-232.14769
5.274,-231.81001
5.276,-232.184
5.278,-232.80653
5.28,-233.14832
5.282,-232.37424
5.284,-231.07913
5.286,-229.4213
5.288,-227.64482
5.29,-225.58063
5.292,-223.98016
5.294,-222.88051
5.296,-222.14131
5.298,-221.1676
5.3,-220.3456
5.302,-219.65654
5.304,-219.1394
5.306,-218.50084
5.308,-218.30469
5.31,-218.56223
5.312,-219.1394
5.314,-219.45396
5.316,-219.74217
5.318,-219.84004
5.32,-219.63972
5.322,-218.77838
5.324,-217.81494
5.326,-216.90128
5.328,-216.1375
5.33,-215.21059
5.332,-214.55043
5.334,-214.07611
5.336,-213.63591
5.338,-212.74525
5.34,-211.77411
5.342,-210.72803
5.344,-209.63336
5.346,-208.1985
5.348,-206.90152
5.35,-205.743
5.352,-204.63017
5.354,-203.10991
5.356,-201.5147
5.358,-199.83511
5.36,-198.12604
5.362,-196.19633
5.364,-194.65361
5.366,-193.63684
5.368,-193.12286
5.37,-192.5973
5.372,-192.198
5.374,-191.6246
5.376,-190.62126
5.378,-188.74881
5.38,-186.53581
5.382,-184.24052
5.384,-182.11586
5.386,-179.97818
5.388,-178.31049
5.39,-177.0694
5.392,-176.11203
5.394,-174.9193
5.396,-173.8567
5.398,-172.92905
5.4,-172.10948
5.402,-170.92621
5.404,-169.7311
5.406,-168.46579
5.408,-167.10631
5.41,-165.30054
5.412,-163.71468
5.414,-162.61003
5.416,-162.10312
5.418,-161.64111
5.42,-161.43208
5.422,-161.17487
5.424,-160.60217
5.426,-159.15897
5.428,-157.50218
5.43,-156.0284
5.432,-155.09866
5.434,-154.41766
5.436,-154.45134
5.438,-155.07823
5.44,-156.0993
5.442,-156.90004
5.444,-157.9751
5.446,-159.50316
5.448,-161.6028
5.45,-163.74306
5.452,-166.23375
5.454,-168.90544
5.456,-171.60918
5.458,-173.82866
5.46,-176.21025
5.462,-179.0717
5.464,-182.61618
5.466,-186.32082
5.468,-190.40962
5.47,-194.59694
5.472,-198.62636
5.474,-201.94963
5.476,-205.28279
5.478,-209.17126
5.48,-214.13623
5.482,-219.95685
5.484,-226.97992
5.486,-234.78146
5.488,-242.65437
5.49,-249.37027
5.492,-254.89153
5.494,-259.2078
5.496,-262.66708
5.498,-265.3335
5.5,-268.2026
5.502,-271.66034
5.504,-275.67538
5.506,-279.33447
5.508,-282.47324
5.51,-284.6426
5.512,-285.68173
5.514,-285.35995
5.516,-284.76266
5.518,-284.7928
5.52,-286.18207
5.522,-288.73288
5.524,-292.63452
5.526,-297.25253
5.528,-301.69193
5.53,-304.62476
5.532,-306.0374
5.534,-306.05103
5.536,-305.19415
5.538,-303.6942
5.54,-302.69427
5.542,-302.67627
5.544,-303.6932
5.546,-304.90448
5.548,-306.25116
5.55,-307.2821
5.552,-307.69574
5.554,-306.92676
5.556,-305.6969
5.558,-304.47168
5.56,-303.6932
5.562,-303.1234
5.564,-303.35367
5.566,-304.30377
5.568,-305.69446
5.57,-306.63596
5.572,-307.40002
5.574,-307.90906
5.576,-308.19608
5.578,-307.8315
5.58,-307.54636
5.582,-307.497
5.584,-307.69574
5.586,-307.4915
5.588,-307.3563
5.59,-307.25638
5.592,-307.19543
5.594,-306.6905
5.596,-306.5016
5.598,-306.8192
5.6,-307.69574
5.602,-308.4715
5.604,-309.54663
5.606,-310.70322
5.608,-311.6983
5.61,-311.80994
5.612,-311.65472
5.614,-311.39352
5.616,-311.19797
5.618,-310.6539
5.62,-310.468
5.622,-310.67667
5.624,-311.19797
5.626,-311.3651
5.628,-311.69916
5.63,-312.168
5.632,-312.6989
5.634,-312.66473
5.636,-312.5917
5.638,-312.44604
5.64,-312.1986
5.642,-311.3519
5.644,-310.6406
5.646,-310.23703
5.648,-310.19733
5.65,-309.90353
5.652,-309.8169
5.654,-309.79102
5.656,-309.69702
5.658,-308.97772
5.66,-308.4154
5.662,-308.2717
5.664,-308.69638
5.666,-309.0996
5.668,-309.9194
5.67,-310.89026
5.672,-311.6983
5.674,-311.56235
5.676,-311.0889
5.678,-310.42563
5.68,-309.69702
5.682,-308.37558
5.684,-307.05292
5.686,-305.68008
5.688,-304.1935
5.69,-302.05627
5.692,-300.05713
5.694,-298.41406
5.696,-297.18906
5.698,-295.68076
5.7,-294.2101
5.702,-292.45718
5.704,-290.1846
5.706,-286.87164
5.708,-283.52625
5.71,-280.77496
5.712,-279.1776
5.714,-278.48212
5.716,-279.27048
5.718,-281.19492
5.72,-283.68048
5.722,-285.63004
5.724,-287.35077
5.726,-288.82578
5.728,-290.1846
5.73,-291.0763
5.732,-292.26248
5.734,-293.8191
5.736,-295.6881
5.738,-297.27274
5.74,-299.09222
5.742,-301.10364
5.744,-303.19287
5.746,-304.77008
5.748,-306.1655
5.75,-307.18246
5.752,-307.69574
5.754,-307.51364
5.756,-307.2314
5.758,-306.9605
5.76,-306.6951
5.762,-306.1811
5.764,-305.61176
5.766,-304.692
5.768,-303.19287
5.77,-300.915
5.772,-298.56732
5.774,-296.54132
5.776,-295.18777
5.778,-294.0646
5.78,-294.0129
5.782,-295.01926
5.784,-296.68875
5.786,-297.26978
5.788,-297.0423
5.79,-295.90198
5.792,-294.18716
5.794,-291.6559
5.796,-289.90884
5.798,-289.5005
5.8,-290.1846
5.802,-290.2058
5.804,-288.7993
5.806,-284.9684
5.808,-278.67728
5.81,-270.44345
5.812,-262.5577
5.814,-256.2486
5.816,-251.15977
5.818,-244.49567
5.82,-233.2964
5.822,-214.29318
5.824,-186.11841
5.826,-149.86108
5.828,-110.36194
5.83,-72.98989
5.832,-42.026737
5.834,-18.62205
5.836,-2.1710384
5.838,9.94447
5.84,19.512413
5.842,25.844753
5.844,23.556217
5.846,5.403659
5.848,-35.5226
5.85,-102.33087
5.852,-193.74545
5.854,-302.2574
5.856,-416.2648
5.858,-522.4846
5.86,-610.32007
5.862,-672.33246
5.864,-705.4488
5.866,-710.1308
5.868,-690.78094
5.87,-653.0493
5.872,-603.38385
5.874,-547.8975
5.876,-493.16373
5.878,-443.98322
5.88,-403.25653
5.882,-371.2836
5.884,-347.41022
5.886,-329.25073
5.888,-314.1999
5.89,-299.9774
5.892,-286.4919
5.894,-274.23813
5.896,-264.16806
5.898,-256.61374
5.9,-252.1211
5.902,-250.01958
5.904,-249.15851
5.906,-248.06003
5.908,-246.44336
5.91,-244.21693
5.912,-241.65373
5.914,-238.85693
5.916,-236.29224
5.918,-234.0769
5.92,-232.14769
5.922,-230.1485
5.924,-228.14378
5.926,-226.25916
5.928,-224.64291
5.93,-223.08473
5.932,-221.69827
5.934,-220.40219
5.936,-219.1394
5.938,-217.48405
5.94,-216.26245
5.942,-215.62997
5.944,-215.63718
5.946,-215.58311
5.948,-216.2602
5.95,-217.14743
5.952,-217.63846
5.954,-216.8068
5.956,-215.56038
5.958,-214.09059
5.96,-212.63527
5.962,-210.99454
5.964,-209.94775
5.966,-209.4194
5.968,-209.13304
5.97,-208.40648
5.972,-207.54637
5.974,-206.45633
5.976,-205.1305
5.978,-203.31328
5.98,-201.59134
5.982,-200.04303
5.984,-198.62636
5.986,-196.91014
5.988,-195.21135
5.99,-193.45468
5.992,-191.6219
5.994,-189.49637
5.996,-187.68123
5.998,-186.36339
6.0,-185.61809
6.002,-185.09734
6.004,-185.02332
6.006,-185.12889
6.008,-185.11777
6.01,-184.51158
6.012,-183.65805
6.014,-182.64943
6.016,-181.61554
6.018,-180.40341
6.02,-179.45338
6.022,-178.73418
6.024,-178.11331
6.026,-177.16151
6.028,-176.10648
6.03,-174.81017
6.032,-173.11012
6.034,-170.59271
6.036,-167.58546
6.038,-164.17558
6.04,-160.60217
6.042,-156.99385
6.044,-154.19296
6.046,-152.54988
6.048,-152.09676
6.05,-152.22832
6.052,-152.71123
6.054,-152.85408
6.056,-152.09676
6.058,-149.95248
6.06,-147.03232
6.062,-143.88481
6.064,-141.08975
6.066,-138.73055
6.068,-137.24251
6.07,-136.35889
6.072,-135.58626
6.074,-134.12766
6.076,-132.12619
6.078,-129.67368
6.08,-127.08084
6.082,-124.40677
6.084,-122.36942
6.086,-121.12899
6.088,-120.576706
6.09,-120.05038
6.092,-119.639
6.094,-119.16243
6.096,-118.57543
6.098,-117.59279
6.1,-116.85077
6.102,-116.628006
6.104,-117.07448
6.106,-117.75431
6.108,-118.90245
6.11,-120.27743
6.112,-121.57734
6.114,-122.13547
6.116,-122.27839
6.118,-122.16396
6.12,-122.07766
6.122,-121.938934
6.124,-122.45523
6.126,-123.84295
6.128,-126.08021
6.13,-128.52103
6.132,-131.26146
6.134,-134.12865
6.136,-137.0872
6.138,-139.84479
6.14,-143.04176
6.142,-146.94458
6.144,-151.59644
6.146,-156.3387
6.148,-161.13419
6.15,-165.62163
6.152,-169.6079
6.154,-172.7889
6.156,-175.95993
6.158,-179.74507
6.16,-184.61745
6.162,-190.28119
6.164,-196.79352
6.166,-203.61932
6.168,-210.13368
6.17,-215.48077
6.172,-219.89305
6.174,-223.64561
6.176,-227.1445
6.178,-230.31146
6.18,-233.60303
6.182,-236.95825
6.184,-240.15277
6.186,-242.56781
6.188,-244.47946
6.19,-246.08101
6.192,-247.65755
6.194,-249.05779
6.196,-250.73293
6.198,-252.66478
6.2,-254.662
6.202,-256.07602
6.204,-257.0785
6.206,-257.71533
6.208,-258.16425
6.21,-258.27893
6.212,-258.64276
6.214,-259.44125
6.216,-260.66583
6.218,-261.72678
6.22,-262.70877
6.222,-263.40167
6.224,-263.66772
6.226,-263.0863
6.228,-262.1608
6.23,-261.12802
6.232,-260.1655
6.234,-258.91907
6.236,-257.7658
6.238,-256.68475
6.24,-255.66264
6.242,-254.34685
6.244,-253.33948
6.246,-252.89711
6.248,-253.16106
6.25,-253.6372
6.252,-254.53578
6.254,-255.50891
6.256,-256.16296
6.258,-255.77216
6.26,-254.79211
6.262,-253.47021
6.264,-252.16042
6.266,-250.7482
6.268,-249.95319
6.27,-249.82193
6.272,-250.15913
6.274,-250.18727
6.276,-250.10812
6.278,-249.77048
6.28,-249.15851
6.282,-247.94511
6.284,-246.89178
6.286,-246.25983
6.288,-246.1566
6.29,-246.07224
6.292,-246.33966
6.294,-246.7612
6.296,-247.15723
6.298,-247.04387
6.3,-247.00426
6.302,-247.1907
6.304,-247.65755
6.306,-247.90213
6.308,-248.21828
6.31,-248.36859
6.312,-248.15787
6.314,-247.15775
6.316,-246.09105
6.318,-245.32607
6.32,-245.15596
6.322,-245.25589
6.324,-246.03813
6.326,-247.274
6.328,-248.65819
6.33,-249.52434
6.332,-250.30025
6.334,-251.02217
6.336,-251.6601
6.338,-251.62593
6.34,-251.2043
6.342,-250.22443
6.344,-248.65819
6.346,-246.32002
6.348,-244.239
6.35,-243.04886
6.352,-243.15468
6.354,-244.10236
6.356,-245.90326
6.358,-247.7373
6.36,-248.65819
6.362,-247.50256
6.364,-244.52542
6.366,-240.02747
6.368,-234.64928
6.37,-228.7086
6.372,-223.35664
6.374,-218.98755
6.376,-215.63718
6.378,-212.66891
6.38,-210.36708
6.382,-208.66188
6.384,-207.63208
6.386,-207.07393
6.388,-207.74155
6.39,-209.80093
6.392,-213.13559
6.394,-216.93607
6.396,-221.09903
6.398,-225.01117
6.4,-228.14514
6.402,-229.83717
6.404,-230.59863
6.406,-230.73962
6.408,-230.64673
6.41,-230.36458
6.412,-230.44467
6.414,-230.79358
6.416,-231.14705
6.418,-231.16203
6.42,-230.95158
6.422,-230.42325
6.424,-229.64609
6.426,-228.86119
6.428,-228.58914
6.43,-228.8991
6.432,-229.64609
6.434,-230.45334
6.436,-231.3505
6.438,-232.10484
6.44,-232.648
6.442,-232.48642
6.444,-232.78363
6.446,-234.13002
6.448,-236.65054
6.45,-238.81477
6.452,-240.3902
6.454,-240.48755
6.456,-238.65182
6.458,-234.44354
6.46,-229.44342
6.462,-224.91264
6.464,-221.641
6.466,-219.07335
6.468,-216.8918
6.47,-214.20609
6.472,-210.634
6.474,-206.20882
6.476,-202.2096
6.478,-198.93611
6.48,-195.12413
6.482,-187.37006
6.484,-172.18259
6.486,-146.53282
6.488,-110.07002
6.49,-65.65721
6.492,-19.727974
6.494,21.148642
6.496,52.53342
6.498,74.09671
6.5,88.18885
6.502,98.72452
6.504,107.56843
6.506,112.36546
6.508,105.18995
6.51,76.11586
6.512,17.010822
6.514,-74.020195
6.516,-191.45766
6.518,-321.88824
6.52,-447.78485
6.522,-551.96423
6.524,-622.951
6.526,-656.11597
6.528,-653.916
6.53,-623.51636
6.532,-574.9999
6.534,-517.6416
6.536,-458.79187
6.538,-403.18433
6.54,-354.26666
6.542,-313.5141
6.544,-281.17886
6.546,-256.27362
6.548,-237.75035
6.55,-223.79297
6.552,-212.63527
6.554,-202.74103
6.556,-193.94406
6.558,-186.30505
6.56,-180.11458
6.562,-175.28143
6.564,-172.04645
6.566,-170.00427
6.568,-168.60725
6.57,-167.20047
6.572,-165.80148
6.574,-164.41516
6.576,-163.10376
6.578,-161.78139
6.58,-160.4194
6.582,-159.0132
6.584,-157.60027
6.586,-156.21167
6.588,-154.93681
6.59,-154.0074
6.592,-153.59772
6.594,-153.6255
6.596,-154.01245
6.598,-154.57484
6.6,-155.09866
6.602,-155.01833
6.604,-154.75917
6.606,-154.04086
6.608,-152.59708
6.61,-149.83191
6.612,-146.63313
6.614,-142.91292
6.616,-138.58817
6.618,-133.42938
6.62,-128.46297
6.622,-124.17605
6.624,-121.07703
6.626,-119.386765
6.628,-119.773865
6.63,-122.06172
6.632,-125.57989
6.634,-129.10588
6.636,-131.8383
6.638,-132.82768
6.64,-131.58371
6.642,-128.07182
6.644,-123.28097
6.646,-118.16889
6.648,-113.57225
6.65,-109.77467
6.652,-107.03106
6.654,-104.95891
6.656,-103.06557
6.658,-100.872986
6.66,-98.653275
6.662,-96.638855
6.664,-95.06047
6.666,-93.8004
6.668,-92.854965
6.67,-91.75821
6.672,-90.05729
6.674,-87.42916
6.676,-84.35993
6.678,-81.38124
6.68,-79.050285
6.682,-77.53103
6.684,-77.00939
6.686,-77.05014
6.688,-77.04902
6.69,-76.36179
6.692,-75.084526
6.694,-73.37564
6.696,-71.54552
6.698,-69.71584
6.7,-68.24314
6.702,-67.068726
6.704,-66.042015
6.706,-64.91368
6.708,-63.95746
6.71,-63.311005
6.712,-63.040104
6.714,-62.871403
6.716,-62.79388
6.718,-62.553024
6.72,-62.039467
6.722,-61.2147
6.724,-60.724003
6.726,-60.96789
6.728,-62.039467
6.73,-63.35531
6.732,-64.4287
6.734,-64.48153
6.736,-63.040104
6.738,-59.992283
6.74,-56.341293
6.742,-53.20502
6.744,-51.532784
6.746,-51.43303
6.748,-52.84537
6.75,-55.002033
6.752,-57.036285
6.754,-58.112347
6.756,-58.51945
6.758,-58.789455
6.76,-59.537876
6.762,-60.776085
6.764,-62.60659
6.766,-64.55109
6.768,-66.042015
6.77,-66.461945
6.772,-66.2445
6.774,-66.03072
6.776,-66.54233
6.778,-67.89741
6.78,-70.320404
6.782,-73.40611
6.784,-76.5487
6.786,-78.941826
6.788,-80.763374
6.79,-82.42601
6.792,-84.55379
6.794,-87.343315
6.796,-91.28835
6.798,-96.31959
6.8,-102.064926
6.802,-107.696625
6.804,-113.09932
6.806,-118.19142
6.808,-123.0783
6.81,-127.60245
6.812,-132.22731
6.814,-137.17744
6.816,-142.59071
6.818,-148.17511
6.82,-154.20268
6.822,-160.70436
6.824,-167.60663
6.826,-174.3576
6.828,-180.88565
6.83,-186.90004
6.832,-192.12222
6.834,-196.01144
6.836,-198.79836
6.838,-200.7184
6.84,-202.12859
6.842,-203.07487
6.844,-204.14503
6.846,-205.62679
6.848,-207.63208
6.85,-209.74565
6.852,-212.09038
6.854,-214.57811
6.856,-217.13814
6.858,-219.37325
6.86,-221.56084
6.862,-223.79945
6.864,-226.14386
6.866,-228.19914
6.868,-230.16899
6.87,-232.00818
6.872,-233.64864
6.874,-234.658
6.876,-235.35855
6.878,-235.94269
6.88,-236.65054
6.882,-237.30577
6.884,-238.33186
6.886,-239.70415
6.888,-241.15341
6.89,-241.84337
6.892,-241.73091
6.894,-240.73871
6.896,-239.15215
6.898,-237.17694
6.9,-235.95026
6.902,-236.08543
6.904,-237.65118
6.906,-239.63736
6.908,-241.45157
6.91,-242.13225
6.912,-241.15341
6.914,-238.29146
6.916,-234.96336
6.918,-232.54277
6.92,-232.14769
6.922,-233.71533
6.924,-237.196
6.926,-241.4542
6.928,-245.15596
6.93,-246.91403
6.932,-247.016
6.934,-246.09373
6.936,-245.15596
6.938,-244.68071
6.94,-245.55344
6.942,-247.60446
6.944,-250.15913
6.946,-251.98814
6.948,-253.00883
6.95,-253.13812
6.952,-252.66074
6.954,-251.6273
6.956,-250.97643
6.958,-250.99106
6.96,-251.6601
6.962,-252.32951
6.964,-253.24098
6.966,-254.22517
6.968,-255.16232
6.97,-255.54431
6.972,-255.91829
6.974,-256.4172
6.976,-257.1636
6.978,-257.79532
6.98,-258.882
6.982,-260.41016
6.984,-262.16678
6.986,-263.31522
6.988,-263.9847
6.99,-263.94937
6.992,-263.16742
6.994,-261.3523
6.996,-259.40887
6.998,-257.77444
7.0,-256.66327
7.002,-255.51999
7.004,-254.48978
7.006,-253.1541
7.008,-251.15977
7.01,-247.95125
7.012,-244.29199
7.014,-240.6956
7.016,-237.65118
7.018,-234.97404
7.02,-233.20758
7.022,-232.19014
7.024,-231.64737
7.026,-230.91843
7.028,-230.57666
7.03,-230.89586
7.032,-232.14769
7.034,-233.96663
7.036,-236.78777
7.038,-240.33011
7.04,-244.15532
7.042,-247.36697
7.044,-250.22104
7.046,-252.65161
7.048,-254.662
7.05,-255.8388
7.052,-256.7354
7.054,-257.4586
7.056,-258.16425
7.058,-258.77982
7.06,-260.01462
7.062,-262.01877
7.064,-264.66837
7.066,-267.37354
7.068,-269.7999
7.07,-271.12073
7.072,-270.67218
7.074,-268.1208
7.076,-264.20044
7.078,-259.71802
7.08,-255.66264
7.082,-252.5941
7.084,-251.55473
7.086,-252.59421
7.088,-255.16232
7.09,-257.49918
7.092,-259.5753
7.094,-261.10733
7.096,-262.16678
7.098,-262.09296
7.1,-262.10217
7.102,-262.71103
7.104,-264.16806
7.106,-265.67398
7.108,-267.49594
7.11,-269.18115
7.112,-270.17188
7.114,-269.42102
7.116,-267.2028
7.118,-263.6515
7.12,-259.16486
7.122,-253.68858
7.124,-247.84436
7.126,-241.0161
7.128,-231.64737
7.13,-217.12491
7.132,-196.0947
7.134,-167.96696
7.136,-134.0853
7.138,-97.27606
7.14,-62.444866
7.142,-33.61267
7.144,-13.008275
7.146,-0.12295588
7.148,6.0807405
7.15,6.9824514
7.152,2.0012732
7.154,-11.916975
7.156,-41.147194
7.158,-91.58647
7.16,-166.10567
7.162,-261.68903
7.164,-370.18735
7.166,-478.40826
7.168,-571.8638
7.17,-638.20404
7.172,-671.5651
7.174,-672.19885
7.176,-645.9109
7.178,-601.24567
7.18,-548.123
7.182,-494.28464
7.184,-444.78296
7.186,-401.70853
7.188,-366.32486
7.19,-338.40735
7.192,-317.20178
7.194,-301.22452
7.196,-289.75595
7.198,-281.48233
7.2,-275.17505
7.202,-269.54395
7.204,-264.71515
7.206,-260.71704
7.208,-257.6639
7.21,-255.13593
7.212,-253.35693
7.214,-251.97357
7.216,-250.65945
7.218,-248.98993
7.22,-247.51457
7.222,-246.64528
7.224,-246.6569
7.226,-247.22517
7.228,-248.1107
7.23,-248.76762
7.232,-248.65819
7.234,-247.20917
7.236,-244.58694
7.238,-241.20995
7.24,-237.65118
7.242,-234.08308
7.244,-231.14409
7.246,-228.88599
7.248,-227.1445
7.25,-225.13213
7.252,-223.53496
7.254,-222.21503
7.256,-221.14069
7.258,-219.86934
7.26,-219.58498
7.262,-220.28075
7.264,-221.641
7.266,-222.7035
7.268,-223.67776
7.27,-224.1015
7.272,-223.64227
7.274,-221.84906
7.276,-219.48917
7.278,-216.95734
7.28,-214.63654
7.282,-212.45847
7.284,-211.00499
7.286,-210.16568
7.288,-209.63336
7.29,-208.72272
7.292,-207.6275
7.294,-206.25023
7.296,-204.63017
7.298,-202.60439
7.3,-200.8043
7.302,-199.33705
7.304,-198.12604
7.306,-196.65228
7.308,-195.09584
7.31,-193.27225
7.312,-191.12158
7.314,-188.47078
7.316,-186.01717
7.318,-184.03009
7.32,-182.61618
7.322,-181.39163
7.324,-180.55286
7.326,-179.85043
7.328,-179.11395
7.33,-178.07718
7.332,-177.39023
7.334,-177.35843
7.336,-178.11331
7.338,-179.18173
7.34,-180.48895
7.342,-181.36143
7.344,-181.11522
7.346,-179.01665
7.348,-175.48465
7.35,-170.95872
7.352,-166.10567
7.354,-161.28813
7.356,-157.43306
7.358,-154.74922
7.36,-153.0974
7.362,-151.79486
7.364,-150.86769
7.366,-150.02864
7.368,-149.09485
7.37,-147.65193
7.372,-146.14381
7.374,-144.62949
7.376,-143.09103
7.378,-141.07721
7.38,-138.95547
7.382,-136.7594
7.384,-134.58562
7.386,-132.22838
7.388,-130.36636
7.39,-129.27298
7.392,-129.08212
7.394,-129.34282
7.396,-130.32085
7.398,-131.81487
7.4,-133.58498
7.402,-135.00893
7.404,-136.44232
7.406,-137.95001
7.408,-139.5888
7.41,-140.92065
7.412,-142.31953
7.414,-143.73685
7.416,-145.0923
7.418,-145.89021
7.42,-146.65831
7.422,-147.64532
7.424,-149.09485
7.426,-150.6875
7.428,-152.88864
7.43,-155.60866
7.432,-158.60089
7.434,-161.11517
7.436,-163.42575
7.438,-165.65437
7.44,-168.10695
7.442,-170.72491
7.444,-174.31854
7.446,-179.14948
7.448,-185.11777
7.45,-191.28546
7.452,-197.38165
7.454,-202.79666
7.456,-207.13177
7.458,-209.90927
7.46,-211.96446
7.462,-214.10289
7.464,-217.13814
7.466,-221.14468
7.468,-226.6079
7.47,-233.19225
7.472,-240.15277
7.474,-246.12642
7.476,-250.7831
7.478,-253.88641
7.48,-255.66264
7.482,-256.2538
7.484,-256.87192
7.486,-258.3446
7.488,-261.16614
7.49,-264.90732
7.492,-269.57278
7.494,-274.5607
7.496,-279.1776
7.498,-282.40134
7.5,-284.3971
7.502,-285.34903
7.504,-285.68173
7.506,-285.43884
7.508,-285.4981
7.51,-286.21606
7.512,-287.683
7.514,-289.27435
7.516,-291.13885
7.518,-293.02612
7.52,-294.68747
7.522,-295.44998
7.524,-295.69067
7.526,-295.53748
7.528,-295.18777
7.53,-294.38095
7.532,-293.81686
7.534,-293.72763
7.536,-294.18716
7.538,-294.6011
7.54,-295.30618
7.542,-296.19592
7.544,-297.18906
7.546,-297.75797
7.548,-298.4805
7.55,-299.46985
7.552,-300.69128
7.554,-301.41187
7.556,-301.83392
7.558,-301.66275
7.56,-300.69128
7.562,-298.4119
7.564,-295.6935
7.566,-293.09976
7.568,-291.18524
7.57,-289.819
7.572,-289.67285
7.574,-290.60037
7.576,-292.18588
7.578,-293.4241
7.58,-294.48914
7.582,-295.2318
7.584,-295.6881
7.586,-295.54266
7.588,-295.62958
7.59,-296.17166
7.592,-297.18906
7.594,-297.99744
7.596,-298.92255
7.598,-299.7231
7.6,-300.19098
7.602,-299.72452
7.604,-299.07907
7.606,-298.6104
7.608,-298.69
7.61,-299.04895
7.612,-300.40228
7.614,-302.61005
7.616,-305.19415
7.618,-306.92444
7.62,-307.76898
7.622,-307.36502
7.624,-305.69446
7.626,-302.59097
7.628,-299.38593
7.63,-296.9014
7.632,-295.6881
7.634,-295.2908
7.636,-295.96832
7.638,-297.04617
7.64,-297.6894
7.642,-296.65076
7.644,-294.24246
7.646,-290.61316
7.648,-286.18207
7.65,-280.94418
7.652,-276.07
7.654,-272.0492
7.656,-269.17123
7.658,-267.01453
7.66,-266.24228
7.662,-266.8514
7.664,-268.67093
7.666,-270.8356
7.668,-273.58685
7.67,-276.6138
7.672,-279.67792
7.674,-282.16147
7.676,-284.78952
7.678,-287.77466
7.68,-291.18524
7.682,-294.3391
7.684,-297.49023
7.686,-300.23062
7.688,-302.19223
7.69,-302.80243
7.692,-302.7583
7.694,-302.42847
7.696,-302.19223
7.698,-302.04227
7.7,-302.4415
7.702,-303.12314
7.704,-303.6932
7.706,-303.6682
7.708,-303.4163
7.71,-303.03543
7.712,-302.69257
7.714,-302.25464
7.716,-302.31003
7.718,-302.83826
7.72,-303.6932
7.722,-303.95453
7.724,-304.4747
7.726,-305.53207
7.728,-307.19543
7.73,-308.14374
7.732,-308.73163
7.734,-308.615
7.736,-307.69574
7.738,-305.4657
7.74,-303.30273
7.742,-301.95612
7.744,-301.69193
7.746,-301.47086
7.748,-301.0131
7.75,-299.5137
7.752,-296.68875
7.754,-292.4288
7.756,-288.13486
7.758,-284.19122
7.76,-279.67792
7.762,-271.69092
7.764,-257.73032
7.766,-235.45045
7.768,-204.63017
7.77,-167.36208
7.772,-129.08514
7.774,-95.11112
7.776,-69.04392
7.778,-50.999607
7.78,-39.490192
7.782,-31.59308
7.784,-26.01655
7.786,-24.558586
7.788,-33.865494
7.79,-61.795273
7.792,-114.57288
7.794,-193.03407
7.796,-292.4933
7.798,-401.72983
7.8,-506.3221
7.802,-592.06354
7.804,-649.99414
7.806,-676.5572
7.808,-673.9287
7.81,-647.8359
7.812,-606.79376
7.814,-558.4297
7.816,-508.8237
7.818,-461.75143
7.82,-420.46774
7.822,-386.37015
7.824,-359.72885
7.826,-339.38852
7.828,-324.54767
7.83,-313.51215
7.832,-304.69385
7.834,-296.5909
7.836,-289.46976
7.838,-283.567
7.84,-279.1776
7.842,-275.85706
7.844,-273.71814
7.846,-272.05927
7.848,-270.17188
7.85,-267.30212
7.852,-264.05157
7.854,-260.9834
7.856,-258.66455
7.858,-257.05792
7.86,-256.33054
7.862,-256.1671
7.864,-256.16296
7.866,-255.75171
7.868,-255.11421
7.87,-254.5038
7.872,-254.16168
7.874,-253.78459
7.876,-253.44731
7.878,-252.8286
7.88,-251.6601
7.882,-249.37358
7.884,-247.03531
7.886,-245.0269
7.888,-243.655
7.89,-242.4315
7.892,-242.25716
7.894,-242.68756
7.896,-243.15468
7.898,-242.79417
7.9,-242.41151
7.902,-242.17203
7.904,-242.15405
7.906,-241.80814
7.908,-241.4079
7.91,-240.48938
7.912,-238.65182
7.914,-235.43916
7.916,-231.7609
7.918,-228.28346
7.92,-225.64354
7.922,-223.82193
7.924,-223.28438
7.926,-223.60974
7.928,-224.1426
7.93,-223.92564
7.932,-223.13809
7.934,-221.80435
7.936,-220.14005
7.938,-218.06073
7.94,-216.22139
7.942,-214.63776
7.944,-213.13559
7.946,-211.14632
7.948,-209.01091
7.95,-206.78094
7.952,-204.63017
7.954,-202.45737
7.956,-200.9243
7.958,-200.0616
7.96,-199.627
7.962,-198.84601
7.964,-197.72903
7.966,-195.9949
7.968,-193.62317
7.97,-190.56163
7.972,-187.77095
7.974,-185.73419
7.976,-184.61745
7.978,-183.83954
7.98,-183.3265
7.982,-182.52531
7.984,-181.11522
7.986,-178.87726
7.988,-176.85098
7.99,-175.77998
7.992,-176.11203
7.994,-177.34753
7.996,-179.24863
7.998,-180.8114
8.0,-181.11522
8.002,-179.38516
8.004,-176.3821
8.006,-172.97476
8.008,-170.10822
8.01,-167.98277
8.012,-167.10872
8.014,-167.04906
8.016,-167.10631
8.018,-166.29422
8.02,-164.94633
8.022,-163.38663
8.024,-162.10312
8.026,-161.0255
8.028,-160.7246
8.03,-161.03578
8.032,-161.6028
8.034,-161.66953
8.036,-161.6666
8.038,-161.86557
8.04,-162.60344
8.042,-163.60797
8.044,-165.27652
8.046,-167.28772
8.048,-169.10757
8.05,-169.75537
8.052,-169.52895
8.054,-168.75444
8.056,-168.10695
8.058,-167.911
8.06,-169.31871
8.062,-172.65274
8.064,-177.61299
8.066,-182.85368
8.068,-187.75768
8.07,-191.47176
8.072,-193.62317
8.074,-193.99884
8.076,-193.94687
8.078,-194.67084
8.08,-197.1254
8.082,-201.14877
8.084,-206.87167
8.086,-213.51596
8.088,-220.14005
8.09,-225.54561
8.092,-230.03732
8.094,-234.03503
8.096,-238.1515
8.098,-242.33804
8.1,-247.12666
8.102,-252.25035
8.104,-257.1636
8.106,-260.8394
8.108,-263.51294
8.11,-265.4485
8.112,-267.16995
8.114,-268.74
8.116,-271.01428
8.118,-274.19656
8.12,-278.17697
8.122,-282.13516
8.124,-286.1756
8.126,-290.0837
8.128,-293.68683
8.13,-296.32684
8.132,-298.39197
8.134,-299.9638
8.136,-301.19162
8.138,-301.78122
8.14,-302.47296
8.142,-303.57394
8.144,-305.19415
8.146,-306.67587
8.148,-308.2161
8.15,-309.59656
8.152,-310.69766
8.154,-311.06003
8.156,-311.44843
8.158,-312.25558
8.16,-313.69955
8.162,-315.16235
8.164,-316.82047
8.166,-318.28787
8.168,-319.20306
8.17,-318.85208
8.172,-317.92905
8.174,-316.89078
8.176,-316.20114
8.178,-315.58234
8.18,-315.6137
8.182,-316.11102
8.184,-316.70148
8.186,-316.46127
8.188,-315.8572
8.19,-315.12872
8.192,-314.7002
8.194,-314.46167
8.196,-315.3252
8.198,-317.35406
8.2,-320.2037
8.202,-322.67773
8.204,-324.72037
8.206,-325.9251
8.208,-326.20752
8.21,-325.28717
8.212,-324.35608
8.214,-324.04944
8.216,-324.70657
8.218,-325.6586
8.22,-327.10333
8.222,-328.46606
8.224,-329.20944
8.226,-328.5143
8.228,-327.2616
8.23,-326.0932
8.232,-325.7072
8.234,-325.98505
8.236,-327.68692
8.238,-330.50034
8.24,-333.71228
8.242,-335.8749
8.244,-337.04886
8.246,-337.08298
8.248,-336.2139
8.25,-334.33893
8.252,-332.77124
8.254,-332.02594
8.256,-332.21133
8.258,-332.40714
8.26,-332.76697
8.262,-332.8104
8.264,-332.21133
8.266,-330.32953
8.268,-328.14673
8.27,-326.15842
8.272,-324.70657
8.274,-323.2197
8.276,-322.16107
8.278,-321.2413
8.28,-320.2037
8.282,-318.4144
8.284,-316.88245
8.286,-316.16977
8.288,-316.70148
8.29,-317.9305
8.292,-320.23083
8.294,-323.04272
8.296,-325.7072
8.298,-327.1528
8.3,-328.03226
8.302,-328.7262
8.304,-329.70975
8.306,-330.7114
8.308,-332.5046
8.31,-334.9502
8.312,-337.71484
8.314,-339.9165
8.316,-342.09482
8.318,-344.33646
8.32,-346.72058
8.322,-348.7624
8.324,-350.7937
8.326,-352.41473
8.328,-353.2247
8.33,-352.8074
8.332,-351.78604
8.334,-350.47653
8.336,-349.22217
8.338,-348.0809
8.34,-347.58572
8.342,-347.56357
8.344,-347.7212
8.346,-347.30508
8.348,-347.0877
8.35,-347.35254
8.352,-348.22153
8.354,-348.4784
8.356,-348.739
8.358,-348.8418
8.36,-348.72183
8.362,-347.48917
8.364,-346.38043
8.366,-345.8912
8.368,-346.22025
8.37,-346.3578
8.372,-346.52502
8.374,-346.2343
8.376,-345.2196
8.378,-342.95953
8.38,-340.63583
8.382,-338.74042
8.384,-337.2145
8.386,-334.57047
8.388,-329.9
8.39,-321.32697
8.392,-307.19543
8.394,-286.05576
8.396,-258.84082
8.398,-226.79324
8.4,-191.6219
8.402,-154.46788
8.404,-117.52041
8.406,-82.16887
8.408,-50.03183
8.41,-22.986116
8.412,-5.4331384
8.414,-2.2289615
8.416,-18.511776
8.418,-57.841038
8.42,-122.53496
8.422,-210.47377
8.424,-315.20053
8.426,-425.9845
8.428,-531.3494
8.43,-619.52
8.432,-681.4335
8.434,-712.001
8.436,-712.57574
8.438,-688.38214
8.44,-647.41187
8.442,-597.7742
8.444,-547.63763
8.446,-502.15546
8.448,-463.79504
8.45,-432.3202
8.452,-407.4916
8.454,-388.02798
8.456,-372.73712
8.458,-360.19254
8.46,-350.44046
8.462,-342.97467
8.464,-337.2145
8.466,-332.02487
8.468,-327.55597
8.47,-323.504
8.472,-319.70337
8.474,-315.62048
8.476,-311.9367
8.478,-308.77768
8.48,-306.1948
8.482,-303.75937
8.484,-301.92822
8.486,-300.74927
8.488,-300.19098
8.49,-299.77652
8.492,-299.62
8.494,-299.63388
8.496,-299.69064
8.498,-299.27634
8.5,-298.4568
8.502,-297.2335
8.504,-295.6881
8.506,-293.47052
8.508,-291.39655
8.51,-289.7327
8.512,-288.68365
8.514,-287.6686
8.516,-287.68472
8.518,-288.37732
8.52,-289.18396
8.522,-288.9399
8.524,-288.36575
8.526,-287.30145
8.528,-285.68173
8.53,-283.05182
8.532,-280.43372
8.534,-278.08905
8.536,-276.1757
8.538,-274.267
8.54,-273.00763
8.542,-272.25104
8.544,-271.67282
8.546,-270.41122
8.548,-268.77835
8.55,-266.6646
8.552,-264.16806
8.554,-261.17633
8.556,-258.76425
8.558,-257.37628
8.56,-257.1636
8.562,-257.4963
8.564,-258.47446
8.566,-259.53326
8.568,-260.1655
8.57,-259.70114
8.572,-258.776
8.574,-257.68256
8.576,-256.66327
8.578,-255.35371
8.58,-254.13026
8.582,-252.67633
8.584,-250.65945
8.586,-247.54965
8.588,-244.10373
8.59,-240.80415
8.592,-238.1515
8.594,-236.0625
8.596,-235.10213
8.598,-234.9799
8.6,-235.1496
8.602,-234.64095
8.604,-233.66887
8.606,-232.24901
8.608,-230.64673
8.61,-228.84032
8.612,-227.75465
8.614,-227.57742
8.616,-228.14514
8.618,-228.58093
8.62,-228.85147
8.622,-228.47333
8.624,-227.1445
8.626,-224.42818
8.628,-221.17947
8.63,-217.92499
8.632,-215.13686
8.634,-212.63445
8.636,-211.00615
8.638,-210.11084
8.64,-209.63336
8.642,-208.75793
8.644,-207.81464
8.646,-206.7688
8.648,-205.63081
8.65,-203.91246
8.652,-202.19849
8.654,-200.57458
8.656,-199.12668
8.658,-197.47008
8.66,-196.37401
8.662,-196.0741
8.664,-196.62509
8.666,-197.3141
8.668,-198.39503
8.67,-199.57494
8.672,-200.62762
8.674,-200.98128
8.676,-201.41821
8.678,-202.36186
8.68,-204.12985
8.682,-206.22702
8.684,-208.96768
8.686,-211.94301
8.688,-214.63654
8.69,-216.09514
8.692,-216.80563
8.694,-217.12936
8.696,-217.63846
8.698,-218.36885
8.7,-220.34554
8.702,-223.81706
8.704,-228.64546
8.706,-233.8285
8.708,-239.3785
8.71,-244.90108
8.712,-250.15913
8.714,-254.56601
8.716,-258.8058
8.718,-263.1376
8.72,-267.6703
8.722,-271.74863
8.724,-275.68222
8.726,-279.33374
8.728,-282.67984
8.73,-285.35486
8.732,-288.27777
8.734,-291.96072
8.736,-296.68875
8.738,-301.80484
8.74,-307.3535
8.742,-312.70566
8.744,-317.20178
8.746,-319.8522
8.748,-321.15765
8.75,-321.5688
8.752,-321.70465
8.754,-321.5694
8.756,-322.03986
8.758,-323.28177
8.76,-325.20688
8.762,-327.04343
8.764,-329.15976
8.766,-331.55423
8.768,-334.21262
8.77,-336.4612
8.772,-338.62457
8.774,-340.46924
8.776,-341.71738
8.778,-341.61432
8.78,-340.74802
8.782,-339.46704
8.784,-338.21515
8.786,-336.82846
8.788,-336.1444
8.79,-336.30872
8.792,-337.2145
8.794,-337.98294
8.796,-338.88257
8.798,-339.69012
8.8,-340.21643
8.802,-339.7514
8.804,-338.9715
8.806,-338.1677
8.808,-337.71484
8.81,-337.38736
8.812,-338.11703
8.814,-340.00018
8.816,-342.71802
8.818,-344.98123
8.82,-346.6782
8.822,-347.29514
8.824,-346.72058
8.826,-344.7351
8.828,-342.8489
8.83,-342.0003
8.832,-342.71802
8.834,-344.2762
8.836,-346.6541
8.838,-348.9152
8.84,-350.2228
8.842,-349.6361
8.844,-348.16022
8.846,-346.60196
8.848,-345.71994
8.85,-345.23724
8.852,-345.6403
8.854,-346.3576
8.856,-346.72058
8.858,-345.76602
8.86,-344.44794
8.862,-343.51047
8.864,-343.71866
8.866,-344.83163
8.868,-347.4149
8.87,-350.84952
8.872,-354.22534
8.874,-356.112
8.876,-356.89456
8.878,-356.783
8.88,-356.22662
8.882,-355.025
8.884,-354.17047
8.886,-353.7657
8.888,-353.72504
8.89,-353.31274
8.892,-353.27545
8.894,-353.754
8.896,-354.72568
8.898,-355.2466
8.9,-355.52023
8.902,-354.99484
8.904,-353.2247
8.906,-349.48386
8.908,-344.92258
8.91,-340.38077
8.912,-336.7142
8.914,-333.87338
8.916,-332.73523
8.918,-333.05112
8.92,-334.21262
8.922,-334.91217
8.924,-335.44632
8.926,-335.7961
8.928,-336.2139
8.93,-336.4781
8.932,-337.70383
8.934,-340.1474
8.936,-343.71866
8.938,-347.42484
8.94,-351.42285
8.942,-355.1836
8.944,-358.2279
8.946,-359.7529
8.948,-360.3162
8.95,-360.05814
8.952,-359.22852
8.954,-357.8543
8.956,-356.74762
8.958,-356.04242
8.96,-355.7263
8.962,-355.52338
8.964,-355.87503
8.966,-356.6663
8.968,-357.72757
8.97,-358.54492
8.972,-359.53665
8.974,-360.51553
8.976,-361.2298
8.978,-360.58636
8.98,-359.56174
8.982,-358.52454
8.984,-357.72757
8.986,-355.9803
8.988,-354.17316
8.99,-352.3604
8.992,-350.7231
8.994,-348.67877
8.996,-347.55005
8.998,-347.66144
9.0,-348.72183
9.002,-349.06982
9.004,-348.27933
9.006,-345.6215
9.008,-341.21707
9.01,-335.4546
9.012,-330.36926
9.014,-326.53436
9.016,-322.7053
9.018,-315.10773
9.02,-300.32703
9.022,-275.1824
9.024,-239.15215
9.026,-194.68207
9.028,-148.34464
9.03,-106.74112
9.032,-74.547424
9.034,-52.313625
9.036,-38.52265
9.038,-29.704586
9.04,-24.015278
9.042,-23.046421
9.044,-33.98663
9.046,-65.60445
9.048,-125.07957
9.05,-213.6956
9.052,-326.54776
9.054,-451.20197
9.056,-571.36346
9.058,-670.7212
9.06,-738.7349
9.062,-770.9353
9.064,-769.4895
9.066,-740.8355
9.068,-694.8386
9.07,-640.4654
9.072,-584.8721
9.074,-532.40796
9.076,-486.59613
9.078,-448.71024
9.08,-418.7664
9.082,-395.33868
9.084,-377.5855
9.086,-363.76398
9.088,-352.22406
9.09,-341.30002
9.092,-331.17685
9.094,-322.00818
9.096,-314.1999
9.098,-307.62418
9.1,-303.02295
9.102,-300.21167
9.104,-298.69
9.106,-297.39566
9.108,-296.2657
9.11,-294.93265
9.112,-293.18652
9.114,-290.66092
9.116,-287.8205
9.118,-285.04388
9.12,-282.67984
9.122,-280.60934
9.124,-279.04794
9.126,-277.9422
9.128,-277.17633
9.13,-276.29697
9.132,-275.65558
9.134,-275.4083
9.136,-275.67538
9.138,-275.81946
9.14,-276.51028
9.142,-277.29636
9.144,-277.67664
9.146,-276.65292
9.148,-275.37994
9.15,-273.89694
9.152,-272.17316
9.154,-269.57794
9.156,-266.9988
9.158,-264.37308
9.16,-261.66647
9.162,-258.53363
9.164,-256.00867
9.166,-254.38438
9.168,-253.66136
9.17,-253.03433
9.172,-252.5343
9.174,-251.54253
9.176,-249.65883
9.178,-246.51965
9.18,-243.25233
9.182,-240.6209
9.184,-239.15215
9.186,-238.46683
9.188,-238.59978
9.19,-238.7455
9.192,-238.1515
9.194,-236.125
9.196,-233.49475
9.198,-230.95512
9.2,-229.14577
9.202,-227.93602
9.204,-227.59042
9.206,-227.52626
9.208,-227.1445
9.21,-225.83502
9.212,-224.37901
9.214,-223.34642
9.216,-223.14195
9.218,-223.30048
9.22,-223.69426
9.222,-223.40207
9.224,-221.641
9.226,-217.85797
9.228,-213.17258
9.23,-208.72878
9.232,-205.63081
9.234,-204.07594
9.236,-204.4228
9.238,-205.93036
9.24,-207.63208
9.242,-208.44661
9.244,-208.73643
9.246,-208.83658
9.248,-209.13304
9.25,-209.30484
9.252,-209.47653
9.254,-208.9753
9.256,-207.13177
9.258,-203.29758
9.26,-198.37636
9.262,-193.31229
9.264,-189.12032
9.266,-186.03603
9.268,-184.63065
9.27,-184.43105
9.272,-184.61745
9.274,-183.98805
9.276,-182.73622
9.278,-181.09813
9.28,-179.61426
9.282,-178.37056
9.284,-178.20421
9.286,-179.09499
9.288,-180.6149
9.29,-181.65024
9.292,-182.20627
9.294,-182.13449
9.296,-181.61554
9.298,-180.58737
9.3,-180.0938
9.302,-180.57555
9.304,-182.11586
9.306,-183.91296
9.308,-186.00449
9.31,-187.98207
9.312,-189.62064
9.314,-190.48268
9.316,-191.4523
9.318,-193.06157
9.32,-195.62445
9.322,-198.53543
9.324,-201.86632
9.326,-205.06203
9.328,-207.63208
9.33,-208.89793
9.332,-209.71254
9.334,-210.85355
9.336,-213.13559
9.338,-216.55974
9.34,-221.68872
9.342,-228.13663
9.344,-235.1496
9.346,-241.40082
9.348,-246.85713
9.35,-251.50085
9.352,-255.66264
9.354,-259.3079
9.356,-263.35074
9.358,-268.02512
9.36,-273.17377
9.362,-277.81125
9.364,-281.86713
9.366,-285.01144
9.368,-287.1827
9.37,-288.12247
9.372,-288.84235
9.374,-290.02975
9.376,-292.18588
9.378,-294.93967
9.38,-298.56705
9.382,-302.66458
9.384,-306.6951
9.386,-309.66898
9.388,-311.86594
9.39,-313.4409
9.392,-314.7002
9.394,-315.42075
9.396,-316.2991
9.398,-317.43036
9.4,-318.70276
9.402,-319.3577
9.404,-319.7197
9.406,-319.80115
9.408,-319.70337
9.41,-319.03632
9.412,-318.51175
9.414,-318.36075
9.416,-318.70276
9.418,-319.00098
9.42,-319.72644
9.422,-320.83795
9.424,-322.205
9.426,-323.0762
9.428,-323.82837
9.43,-324.38803
9.432,-324.70657
9.434,-324.22128
9.436,-323.60327
9.438,-323.04773
9.44,-322.7053
9.442,-322.0886
9.444,-321.85812
9.446,-322.0751
9.448,-322.7053
9.45,-323.08276
9.452,-323.7344
9.454,-324.6299
9.456,-325.7072
9.458,-326.3407
9.46,-327.0869
9.462,-327.91415
9.464,-328.7091
9.466,-328.75894
9.468,-328.62418
9.47,-328.38562
9.472,-328.2088
9.474,-327.7602
9.476,-327.9568
9.478,-328.9787
9.48,-330.7104
9.482,-332.16165
9.484,-333.48004
9.486,-334.2437
9.488,-334.21262
9.49,-332.85907
9.492,-331.2733
9.494,-330.07016
9.496,-329.70975
9.498,-329.70917
9.5,-330.52493
9.502,-331.71457
9.504,-332.71167
9.506,-332.48508
9.508,-331.65063
9.51,-330.55713
9.512,-329.70975
9.514,-328.94107
9.516,-329.1255
9.518,-330.0908
9.52,-331.2107
9.522,-331.01398
9.524,-329.4537
9.526,-326.26486
9.528,-321.70465
9.53,-315.92398
9.532,-310.69876
9.534,-307.09863
9.536,-305.69446
9.538,-305.77664
9.54,-307.37808
9.542,-309.62292
9.544,-311.6983
9.546,-312.5951
9.548,-313.1644
9.55,-314.00473
9.552,-315.70084
9.554,-317.91696
9.556,-321.16885
9.558,-324.97687
9.56,-328.7091
9.562,-331.33566
9.564,-333.44455
9.566,-335.30533
9.568,-337.2145
9.57,-338.81046
9.572,-340.47583
9.574,-341.76468
9.576,-342.2177
9.578,-341.41037
9.58,-340.0693
9.582,-338.67697
9.584,-337.71484
9.586,-337.23572
9.588,-337.6781
9.59,-338.6697
9.592,-339.71613
9.594,-340.08417
9.596,-340.42075
9.598,-341.04398
9.6,-342.2177
9.602,-342.99222
9.604,-344.1508
9.606,-345.52078
9.608,-346.72058
9.61,-346.13922
9.612,-344.52548
9.614,-342.1836
9.616,-339.71613
9.618,-336.9745
9.62,-335.38623
9.622,-335.25757
9.624,-336.2139
9.626,-336.59906
9.628,-335.99142
9.63,-333.69482
9.632,-329.70975
9.634,-324.1056
9.636,-318.37357
9.638,-312.66736
9.64,-305.69446
9.642,-294.18896
9.644,-275.66132
9.646,-248.03656
9.648,-211.63463
9.65,-169.1701
9.652,-126.77884
9.654,-90.26008
9.656,-63.54042
9.658,-46.921715
9.66,-39.24292
9.662,-37.91799
9.664,-42.026737
9.666,-53.583958
9.668,-79.208984
9.67,-126.10156
9.672,-199.12668
9.674,-297.0831
9.676,-412.97824
9.678,-533.2963
9.68,-641.9084
9.682,-723.9085
9.684,-771.0301
9.686,-781.585
9.688,-760.48376
9.69,-716.4121
9.692,-660.53394
9.694,-602.05914
9.696,-547.3482
9.698,-499.20633
9.7,-459.19543
9.702,-426.78748
9.704,-400.75494
9.706,-379.2417
9.708,-361.70334
9.71,-347.2452
9.712,-335.21326
9.714,-324.7273
9.716,-316.23022
9.718,-309.627
9.72,-304.69385
9.722,-300.5799
9.724,-297.4012
9.726,-294.72177
9.728,-292.18588
9.73,-289.20505
9.732,-286.26944
9.734,-283.55234
9.736,-281.17886
9.738,-278.85895
9.74,-276.82825
9.742,-275.10632
9.744,-273.6741
9.746,-272.1587
9.748,-270.71555
9.75,-269.36957
9.752,-268.1706
9.754,-266.7967
9.756,-265.73685
9.758,-265.0488
9.76,-264.66837
9.762,-263.7786
9.764,-263.06683
9.766,-262.13672
9.768,-260.66583
9.77,-257.9698
9.772,-255.47704
9.774,-253.49213
9.776,-252.16042
9.778,-250.93019
9.78,-250.48625
9.782,-250.41812
9.784,-250.15913
9.786,-248.78085
9.788,-246.7751
9.79,-244.27888
9.792,-241.65373
9.794,-238.97359
9.796,-237.27449
9.798,-236.74411
9.8,-237.15086
9.802,-237.53574
9.804,-237.74933
9.806,-237.21638
9.808,-235.64992
9.81,-232.80232
9.812,-229.71013
9.814,-227.01357
9.816,-225.14323
9.818,-223.77603
9.82,-223.09923
9.822,-222.57019
9.824,-221.641
9.826,-219.67036
9.828,-217.25955
9.83,-214.7911
9.832,-212.63527
9.834,-210.58562
9.836,-208.99033
9.838,-207.48299
9.84,-205.63081
9.842,-202.84546
9.844,-199.72075
9.846,-196.66254
9.848,-194.12349
9.85,-192.04816
9.852,-190.95255
9.854,-190.61119
9.856,-190.62126
9.858,-190.26192
9.86,-189.84589
9.862,-189.42908
9.864,-189.12032
9.866,-188.60019
9.868,-188.25035
9.87,-187.85506
9.872,-187.11903
9.874,-185.47713
9.876,-183.44637
9.878,-181.3489
9.88,-179.61426
9.882,-178.24689
9.884,-177.91113
9.886,-178.51471
9.888,-179.61426
9.89,-180.16841
9.892,-180.07216
9.894,-179.03447
9.896,-177.11267
9.898,-174.30101
9.9,-171.73009
9.902,-170.05809
9.904,-169.6079
9.906,-169.79607
9.908,-170.60252
9.91,-171.39381
9.912,-171.60918
9.914,-170.56076
9.916,-168.95836
9.918,-167.42043
9.92,-166.60599
9.922,-166.46996
9.924,-167.56433
9.926,-169.62625
9.928,-172.10948
9.93,-173.95721
9.932,-175.2735
9.934,-176.07251
9.936,-176.61235
9.938,-176.78079
9.94,-177.3917
9.942,-178.6796
9.944,-180.6149
9.946,-182.4774
9.948,-184.47427
9.95,-186.50655
9.952,-188.62
9.954,-190.50993
9.956,-192.9219
9.958,-196.12082
9.96,-200.12732
9.962,-204.2049
9.964,-208.44516
9.966,-212.6044
9.968,-216.63782
9.97,-220.28072
9.972,-224.4247
9.974,-229.51834
9.976,-235.64992
9.978,-241.92307
9.98,-248.03986
9.982,-253.26537
9.984,-257.1636
9.986,-259.376
9.988,-261.05472
9.99,-263.22906
9.992,-266.66965
9.994,-271.00858
9.996,-276.11395
9.998,-281.00558
10.0,-284.6811
10.002,-286.1106
10.004,-285.9488
10.006,-285.1057
10.008,-284.6811
10.01,-284.99207
10.012,-286.71393
10.014,-289.5208
10.016,-292.6862
10.018,-294.98654
10.02,-296.5125
10.022,-297.42908
10.024,-298.1897
10.026,-298.76178
10.028,-299.8601
10.03,-301.45523
10.032,-303.19287
10.034,-304.09784
10.036,-304.32745
10.038,-303.9249
10.04,-303.19287
10.042,-302.0575
10.044,-301.4482
10.046,-301.66946
10.048,-302.69257
10.05,-303.65512
10.052,-304.61105
10.054,-305.194
10.056,-305.19415
10.058,-304.11526
10.06,-302.83224
10.062,-301.8768
10.064,-301.69193
10.066,-301.92303
10.068,-303.05948
10.07,-304.80774
10.072,-306.6951
10.074,-307.71494
10.076,-308.1841
10.078,-308.1236
10.08,-307.69574
10.082,-306.58142
10.084,-305.60165
10.086,-304.95038
10.088,-304.69385
10.09,-304.29367
10.092,-304.3344
10.094,-304.82922
10.096,-305.69446
10.098,-306.21515
10.1,-306.80508
10.102,-307.33032
10.104,-307.69574
10.106,-307.3726
10.108,-307.1632
10.11,-307.36786
10.112,-308.19608
10.114,-309.1237
10.116,-310.67676
10.118,-312.64505
10.12,-314.7002
10.122,-315.9522
10.124,-316.8902
10.126,-317.5875
10.128,-318.20242
10.13,-318.3433
10.132,-318.79892
10.134,-319.63663
10.136,-320.704
10.138,-321.11115
10.14,-321.18427
10.142,-320.7397
10.144,-319.70337
10.146,-317.56918
10.148,-315.19568
10.15,-312.8631
10.152,-310.69766
10.154,-308.0633
10.156,-305.46997
10.158,-302.8428
10.16,-300.19098
10.162,-297.12076
10.164,-294.6586
10.166,-293.26422
10.168,-293.18652
10.17,-293.77625
10.172,-295.31
10.174,-297.28912
10.176,-299.19034
10.178,-300.1311
10.18,-300.81558
10.182,-301.6693
10.184,-303.19287
10.186,-305.18356
10.188,-308.34027
10.19,-312.38852
10.192,-316.70148
10.194,-320.028
10.196,-322.34845
10.198,-323.3843
10.2,-323.2056
10.202,-321.89932
10.204,-320.50565
10.206,-319.51022
10.208,-319.20306
10.21,-319.51013
10.212,-320.7177
10.214,-322.4484
10.216,-324.20624
10.218,-325.39883
10.22,-326.18356
10.222,-326.43732
10.224,-326.20752
10.226,-325.09653
10.228,-324.30063
10.23,-324.31247
10.232,-325.20688
10.234,-325.53073
10.236,-325.50467
10.238,-324.72684
10.24,-323.2056
10.242,-320.6219
10.244,-318.65634
10.246,-318.15033
10.248,-319.20306
10.25,-320.3293
10.252,-320.8517
10.254,-319.69974
10.256,-316.70148
10.258,-312.24487
10.26,-308.597
10.262,-306.9273
10.264,-306.6951
10.266,-304.6785
10.268,-297.47394
10.27,-281.35742
10.272,-254.662
10.274,-218.30734
10.276,-177.19467
10.278,-136.62729
10.28,-100.56397
10.282,-69.50431
10.284,-42.31032
10.286,-16.191837
10.288,10.006366
10.29,34.060417
10.292,48.13847
10.294,42.408497
10.296,8.005093
10.298,-58.680634
10.3,-155.30202
10.302,-271.68658
10.304,-392.74985
10.306,-501.86435
10.308,-586.5586
10.31,-639.41675
10.312,-659.4195
10.314,-650.4237
10.316,-620.78015
10.318,-579.1799
10.32,-533.3393
10.322,-488.4632
10.324,-448.69052
10.326,-415.59296
10.328,-389.24762
10.33,-368.33347
10.332,-352.32208
10.334,-340.09894
10.336,-330.7104
10.338,-322.93976
10.34,-316.92456
10.342,-312.30856
10.344,-308.69638
10.346,-305.18347
10.348,-302.06918
10.35,-299.23605
10.352,-296.68875
10.354,-294.06674
10.356,-292.01596
10.358,-290.5962
10.36,-289.6843
10.362,-288.67493
10.364,-287.68597
10.366,-286.67862
10.368,-285.68173
10.37,-284.43527
10.372,-283.17212
10.374,-282.04242
10.376,-281.17886
10.378,-280.37134
10.38,-279.87268
10.382,-279.80792
10.384,-280.17825
10.386,-280.26486
10.388,-280.3876
10.39,-280.13126
10.392,-279.1776
10.394,-276.83298
10.396,-274.37167
10.398,-272.09012
10.4,-270.17188
10.402,-268.1203
10.404,-266.79297
10.406,-266.0517
10.408,-265.669
10.41,-264.9992
10.412,-264.70264
10.414,-264.79785
10.416,-265.1687
10.418,-265.09195
10.42,-264.79037
10.422,-263.89825
10.424,-262.16678
10.426,-259.20374
10.428,-255.94225
10.43,-252.93942
10.432,-250.65945
10.434,-248.8867
10.436,-248.05992
10.438,-247.81558
10.44,-247.65755
10.442,-246.78519
10.444,-245.62697
10.446,-244.33916
10.448,-243.15468
10.45,-241.83488
10.452,-240.93317
10.454,-240.30237
10.456,-239.65245
10.458,-238.31857
10.46,-236.72075
10.462,-234.94516
10.464,-233.14832
10.466,-231.08702
10.468,-229.398
10.47,-228.11336
10.472,-227.1445
10.474,-225.96437
10.476,-225.01152
10.478,-224.25696
10.48,-223.64227
10.482,-222.67447
10.484,-221.76299
10.486,-220.79947
10.488,-219.63972
10.49,-217.77263
10.492,-215.71796
10.494,-213.6143
10.496,-211.63463
10.498,-209.5384
10.5,-207.99039
10.502,-207.05814
10.504,-206.63145
10.506,-206.04651
10.508,-205.58737
10.51,-205.12471
10.512,-204.63017
10.514,-203.76534
10.516,-203.23506
10.518,-203.20918
10.52,-203.62955
10.522,-203.72995
10.524,-203.61526
10.526,-202.95901
10.528,-201.62827
10.53,-199.32358
10.532,-197.074
10.534,-195.52875
10.536,-195.12413
10.538,-195.39139
10.54,-196.51773
10.542,-197.95636
10.544,-199.12668
10.546,-199.16669
10.548,-198.68755
10.55,-198.16055
10.552,-198.12604
10.554,-198.4207
10.556,-199.62408
10.558,-201.51244
10.56,-203.62955
10.562,-204.9933
10.564,-205.95122
10.566,-206.70135
10.568,-207.63208
10.57,-208.60918
10.572,-210.43558
10.574,-213.18869
10.576,-216.63782
10.578,-219.82602
10.58,-222.88351
10.582,-225.64867
10.584,-228.14514
10.586,-230.03267
10.588,-232.16336
10.59,-234.94997
10.592,-238.65182
10.594,-242.76785
10.596,-247.65729
10.598,-253.07645
10.6,-258.66455
10.602,-263.52484
10.604,-267.9765
10.606,-272.1116
10.608,-276.1757
10.61,-279.93878
10.612,-284.1675
10.614,-288.98538
10.616,-294.18716
10.618,-298.75327
10.62,-302.6264
10.622,-305.4611
10.624,-307.19543
10.626,-307.59158
10.628,-307.75885
10.63,-308.45282
10.632,-310.19733
10.634,-312.55283
10.636,-315.71307
10.638,-319.14175
10.64,-322.205
10.642,-323.8826
10.644,-324.59515
10.646,-324.69196
10.648,-324.70657
10.65,-324.58908
10.652,-325.15656
10.654,-326.45828
10.656,-328.2088
10.658,-329.38733
10.66,-330.13684
10.662,-330.36255
10.664,-330.21005
10.666,-329.4426
10.668,-329.0105
10.67,-329.25473
10.672,-330.21005
10.674,-331.03024
10.676,-331.84448
10.678,-332.30316
10.68,-332.21133
10.682,-331.05325
10.684,-329.77005
10.686,-328.87323
10.688,-328.7091
10.69,-328.7115
10.692,-329.2328
10.694,-329.874
10.696,-330.21005
10.698,-329.41504
10.7,-328.2956
10.702,-327.3716
10.704,-327.20816
10.706,-327.56335
10.708,-329.1635
10.71,-331.74393
10.712,-334.71292
10.714,-336.77017
10.716,-338.0873
10.718,-338.52747
10.72,-338.21515
10.722,-336.8459
10.724,-335.53848
10.726,-334.7414
10.728,-334.71292
10.73,-334.9007
10.732,-335.8747
10.734,-337.4309
10.736,-339.2158
10.738,-340.23718
10.74,-340.8694
10.742,-341.01437
10.744,-340.71674
10.746,-339.5854
10.748,-338.64145
10.75,-338.27795
10.752,-338.71548
10.754,-339.35162
10.756,-340.6861
10.758,-342.43686
10.76,-344.21896
10.762,-345.08527
10.764,-345.59253
10.766,-345.88187
10.768,-346.22025
10.77,-346.3012
10.772,-347.07114
10.774,-348.6261
10.776,-350.7231
10.778,-352.23978
10.78,-353.33002
10.782,-353.67188
10.784,-353.2247
10.786,-351.68204
10.788,-350.3149
10.79,-349.7438
10.792,-350.2228
10.794,-350.86563
10.796,-351.69437
10.798,-351.8881
10.8,-350.7231
10.802,-347.27814
10.804,-342.56506
10.806,-337.40363
10.808,-332.71167
10.81,-328.5715
10.812,-325.98392
10.814,-324.84927
10.816,-324.70657
10.818,-324.38937
10.82,-324.2643
10.822,-324.3206
10.824,-324.70657
10.826,-324.98138
10.828,-325.9562
10.83,-327.61017
10.832,-329.70975
10.834,-331.33176
10.836,-332.959
10.838,-334.5695
10.84,-336.2139
10.842,-337.40512
10.844,-338.8539
10.846,-340.52203
10.848,-342.2177
10.85,-343.29153
10.852,-344.07794
10.854,-344.406
10.856,-344.21896
10.858,-343.41077
10.86,-342.74393
10.862,-342.4648
10.864,-342.71802
10.866,-343.341
10.868,-344.6641
10.87,-346.29938
10.872,-347.7212
10.874,-347.93848
10.876,-347.5279
10.878,-346.6955
10.88,-345.71994
10.882,-343.7848
10.884,-342.13864
10.886,-341.19318
10.888,-341.21707
10.89,-341.27042
10.892,-342.14493
10.894,-343.62674
10.896,-345.2196
10.898,-345.52072
10.9,-344.80136
10.902,-343.0522
10.904,-340.71674
10.906,-337.90598
10.908,-336.03525
10.91,-335.27072
10.912,-334.71292
10.914,-331.8017
10.916,-324.70963
10.918,-311.22574
10.92,-290.1846
10.922,-261.4249
10.924,-227.60178
10.926,-191.59435
10.928,-156.0993
10.93,-122.23134
10.932,-91.097206
10.934,-62.295044
10.936,-35.5226
10.938,-11.239539
10.94,6.6169853
10.942,12.5621
10.944,1.9994935e-16
10.946,-36.392887
10.948,-100.38855
10.95,-190.56244
10.952,-300.19098
10.954,-417.4371
10.956,-529.25024
10.958,-622.301
10.96,-686.4367
10.962,-716.21686
10.964,-713.4367
10.966,-684.38403
10.968,-638.4061
10.97,-584.88385
10.972,-532.8169
10.974,-487.59027
10.976,-451.28708
10.978,-422.8455
10.98,-401.02924
10.982,-383.71106
10.984,-369.2349
10.986,-356.185
10.988,-345.01456
10.99,-335.8453
10.992,-328.7091
10.994,-322.8806
10.996,-318.63626
10.998,-315.5511
11.0,-313.19925
11.002,-310.77905
11.004,-308.77054
11.006,-307.2281
11.008,-306.1948
11.01,-305.22754
11.012,-304.65482
11.014,-304.37665
11.016,-304.1935
11.018,-303.52066
11.02,-302.4626
11.022,-301.11572
11.024,-299.69064
11.026,-298.0987
11.028,-296.72495
11.03,-295.74817
11.032,-295.18777
11.034,-294.41495
11.036,-293.77383
11.038,-293.0723
11.04,-292.18588
11.042,-290.43182
11.044,-288.95724
11.046,-287.7501
11.048,-286.68237
11.05,-285.0052
11.052,-283.68466
11.054,-282.63306
11.056,-281.6792
11.058,-280.16235
11.06,-278.8121
11.062,-277.65088
11.064,-276.67603
11.066,-275.4146
11.068,-274.53098
11.07,-273.99683
11.072,-273.6741
11.074,-272.93967
11.076,-272.24228
11.078,-271.50305
11.08,-270.67218
11.082,-269.3347
11.084,-268.12634
11.086,-267.0971
11.088,-266.1693
11.09,-264.74725
11.092,-263.19104
11.094,-261.35443
11.096,-259.16486
11.098,-256.28522
11.1,-253.4969
11.102,-251.07399
11.104,-249.15851
11.106,-247.3025
11.108,-245.8653
11.11,-244.57791
11.112,-243.15468
11.114,-241.03043
11.116,-238.78725
11.118,-236.60855
11.12,-234.64928
11.122,-232.55414
11.124,-230.79733
11.126,-229.2282
11.128,-227.64482
11.13,-225.52235
11.132,-223.44601
11.134,-221.60052
11.136,-220.14005
11.138,-218.69669
11.14,-217.70761
11.142,-216.9586
11.144,-216.1375
11.146,-214.55998
11.148,-212.6813
11.15,-210.63423
11.152,-208.63272
11.154,-206.46303
11.156,-204.81871
11.158,-203.75064
11.16,-203.12923
11.162,-202.28163
11.164,-201.5492
11.166,-200.84247
11.168,-200.12732
11.17,-198.96762
11.172,-198.00835
11.174,-197.38284
11.176,-197.1254
11.178,-196.68579
11.18,-196.51358
11.182,-196.5308
11.184,-196.62509
11.186,-196.20282
11.188,-195.81186
11.19,-195.57927
11.192,-195.62445
11.194,-195.50699
11.196,-195.8157
11.198,-196.56285
11.2,-197.62572
11.202,-198.27145
11.204,-198.88466
11.206,-199.47029
11.208,-200.12732
11.21,-200.50496
11.212,-201.40274
11.214,-203.09018
11.216,-205.63081
11.218,-208.30063
11.22,-211.30736
11.222,-214.34232
11.224,-217.13814
11.226,-219.0381
11.228,-220.69286
11.23,-222.44984
11.232,-224.64291
11.234,-226.9317
11.236,-229.89464
11.238,-233.5137
11.24,-237.65118
11.242,-241.6022
11.244,-245.80206
11.246,-250.31235
11.248,-255.16232
11.25,-259.74747
11.252,-264.44348
11.254,-269.13412
11.256,-273.6741
11.258,-277.4306
11.26,-280.95444
11.262,-284.46954
11.264,-288.18332
11.266,-291.65863
11.268,-295.38528
11.27,-299.29236
11.272,-303.19287
11.274,-306.33752
11.276,-309.1329
11.278,-311.6927
11.28,-314.1999
11.282,-316.2991
11.284,-318.63663
11.286,-321.30466
11.288,-324.20624
11.29,-326.55255
11.292,-328.5808
11.294,-330.1509
11.296,-331.2107
11.298,-331.28268
11.3,-331.09393
11.302,-330.98352
11.304,-331.2107
11.306,-331.33203
11.308,-331.85672
11.31,-332.70944
11.312,-333.71228
11.314,-334.11096
11.316,-334.3551
11.318,-334.521
11.32,-334.71292
11.322,-334.44705
11.324,-334.34244
11.326,-334.4509
11.328,-334.71292
11.33,-334.43546
11.332,-334.13046
11.334,-333.85922
11.336,-333.71228
11.338,-333.20844
11.34,-333.07538
11.342,-333.42484
11.344,-334.21262
11.346,-334.65158
11.348,-335.1528
11.35,-335.5547
11.352,-335.71356
11.354,-334.96274
11.356,-334.04828
11.358,-333.21994
11.36,-332.71167
11.362,-332.06873
11.364,-332.05093
11.366,-332.6616
11.368,-333.71228
11.37,-334.2716
11.372,-334.76044
11.374,-335.07315
11.376,-335.21326
11.378,-334.68692
11.38,-334.44153
11.382,-334.75647
11.384,-335.71356
11.386,-336.55594
11.388,-337.68784
11.39,-338.8261
11.392,-339.71613
11.394,-339.65848
11.396,-339.42456
11.398,-339.23596
11.4,-339.2158
11.402,-338.74854
11.404,-338.38934
11.406,-338.0503
11.408,-337.71484
11.41,-336.9535
11.412,-336.811
11.414,-337.69153
11.416,-339.71613
11.418,-341.99677
11.42,-344.6213
11.422,-346.8949
11.424,-348.22153
11.426,-347.77658
11.428,-346.5625
11.43,-345.30127
11.432,-344.7193
11.434,-344.64557
11.436,-345.80646
11.438,-347.8683
11.44,-350.2228
11.442,-351.67004
11.444,-352.59753
11.446,-353.05502
11.448,-353.2247
11.45,-352.64755
11.452,-352.05093
11.454,-351.33316
11.456,-350.2228
11.458,-347.82883
11.46,-344.75037
11.462,-341.1348
11.464,-337.2145
11.466,-332.62543
11.468,-328.29678
11.47,-324.44864
11.472,-321.20435
11.474,-318.05533
11.476,-315.86948
11.478,-314.87906
11.48,-315.20053
11.482,-316.172
11.484,-318.29822
11.486,-321.2853
11.488,-324.70657
11.49,-327.52356
11.492,-330.119
11.494,-332.36795
11.496,-334.21262
11.498,-335.08115
11.5,-335.7122
11.502,-336.2287
11.504,-336.7142
11.506,-336.77884
11.508,-337.07614
11.51,-337.59152
11.512,-338.21515
11.514,-338.5461
11.516,-338.93158
11.518,-339.1962
11.52,-339.2158
11.522,-338.80255
11.524,-338.60223
11.526,-338.74017
11.528,-339.2158
11.53,-339.50217
11.532,-340.01602
11.534,-340.5148
11.536,-340.71674
11.538,-339.51038
11.54,-338.0047
11.542,-336.75363
11.544,-336.2139
11.546,-335.39963
11.548,-335.1472
11.55,-335.31033
11.552,-335.71356
11.554,-335.44495
11.556,-335.43835
11.558,-335.9012
11.56,-336.7142
11.562,-336.6547
11.564,-335.6696
11.566,-333.21777
11.568,-329.20944
11.57,-323.46118
11.572,-317.2247
11.574,-310.53674
11.576,-302.19223
11.578,-289.18063
11.58,-269.35217
11.582,-240.87964
11.584,-204.12985
11.586,-161.62033
11.588,-119.12444
11.59,-82.043434
11.592,-54.034374
11.594,-35.373077
11.596,-25.141956
11.598,-21.182507
11.6,-23.01464
11.602,-32.913708
11.604,-57.516228
11.606,-103.76462
11.608,-176.11203
11.61,-272.95322
11.612,-387.11078
11.614,-505.17245
11.616,-611.3889
11.618,-691.3723
11.62,-737.38794
11.622,-748.094
11.624,-728.46344
11.626,-686.9475
11.628,-634.2882
11.63,-579.24506
11.632,-527.8358
11.634,-482.69016
11.636,-445.41837
11.638,-415.63986
11.64,-392.24954
11.642,-373.36984
11.644,-358.32886
11.646,-346.03864
11.648,-335.71356
11.65,-326.47177
11.652,-318.93256
11.654,-313.21368
11.656,-309.1967
11.658,-305.90497
11.66,-303.2124
11.662,-300.4388
11.664,-297.18906
11.666,-293.13977
11.668,-289.32874
11.67,-286.52133
11.672,-285.18143
11.674,-284.87738
11.676,-285.30658
11.678,-285.7679
11.68,-285.68173
11.682,-284.52316
11.684,-282.7876
11.686,-281.13623
11.688,-280.17825
11.69,-279.738
11.692,-279.97443
11.694,-280.3319
11.696,-280.17825
11.698,-278.49585
11.7,-276.3112
11.702,-274.0235
11.704,-272.17316
11.706,-270.5577
11.708,-270.4694
11.71,-271.48535
11.712,-272.67346
11.714,-272.45895
11.716,-271.04343
11.718,-268.30618
11.72,-264.66837
11.722,-260.50916
11.724,-257.5097
11.726,-256.37598
11.728,-257.1636
11.73,-258.81387
11.732,-260.88748
11.734,-262.2765
11.736,-262.16678
11.738,-259.9385
11.74,-256.65546
11.742,-253.2576
11.744,-250.65945
11.746,-248.98035
11.748,-248.74187
11.75,-249.41046
11.752,-250.15913
11.754,-249.85454
11.756,-248.70071
11.758,-246.83588
11.76,-244.65564
11.762,-242.18684
11.764,-240.22762
11.766,-238.79317
11.768,-237.65118
11.77,-236.12027
11.772,-234.57018
11.774,-233.04095
11.776,-231.64737
11.778,-230.0916
11.78,-228.91171
11.782,-228.00568
11.784,-227.1445
11.786,-225.70467
11.788,-224.09921
11.79,-222.37877
11.792,-220.64037
11.794,-218.57533
11.796,-216.7862
11.798,-215.31984
11.8,-214.13623
11.802,-212.75453
11.804,-211.6473
11.806,-210.80064
11.808,-210.13368
11.81,-209.09618
11.812,-208.05504
11.814,-206.92072
11.816,-205.63081
11.818,-203.77602
11.82,-202.01857
11.822,-200.5834
11.824,-199.627
11.826,-198.75293
11.828,-198.40782
11.83,-198.44827
11.832,-198.62636
11.834,-198.2282
11.836,-197.6404
11.838,-196.90132
11.84,-196.12477
11.842,-194.98671
11.844,-194.1904
11.846,-193.89711
11.848,-194.12349
11.85,-194.2684
11.852,-194.71268
11.854,-195.36197
11.856,-196.12477
11.858,-196.46298
11.86,-196.95964
11.862,-197.79651
11.864,-199.12668
11.866,-200.51154
11.868,-202.4731
11.87,-204.93208
11.872,-207.63208
11.874,-209.68848
11.876,-211.31541
11.878,-212.42786
11.88,-213.13559
11.882,-213.22018
11.884,-213.64957
11.886,-214.89015
11.888,-217.13814
11.89,-219.73083
11.892,-222.77023
11.894,-225.84256
11.896,-228.64546
11.898,-230.64288
11.9,-232.64781
11.902,-235.18944
11.904,-238.65182
11.906,-242.56758
11.908,-247.1436
11.91,-251.97098
11.912,-256.66327
11.914,-260.5587
11.916,-264.3133
11.918,-268.29102
11.92,-272.67346
11.922,-276.7465
11.924,-280.49463
11.926,-283.4006
11.928,-285.18143
11.93,-285.54224
11.932,-285.7029
11.934,-286.67526
11.936,-289.18396
11.938,-292.79865
11.94,-297.43234
11.942,-302.18384
11.944,-306.1948
11.946,-308.5619
11.948,-310.0387
11.95,-311.36603
11.952,-313.19925
11.954,-315.16687
11.956,-317.2948
11.958,-318.7478
11.96,-318.70276
11.962,-316.32645
11.964,-312.62363
11.966,-308.7991
11.968,-306.1948
11.97,-305.203
11.972,-306.48135
11.974,-309.38718
11.976,-312.6989
11.978,-314.61868
11.98,-314.92706
11.982,-313.70358
11.984,-311.6983
11.986,-309.4613
11.988,-308.5503
11.99,-309.5259
11.992,-312.1986
11.994,-315.17398
11.996,-317.89438
11.998,-319.40704
12.0,-319.20306
12.002,-316.85187
12.004,-313.69482
12.006,-310.82907
12.008,-309.1967
12.01,-308.68942
12.012,-309.7946
12.014,-311.9223
12.016,-314.1999
12.018,-315.27582
12.02,-315.3997
12.022,-314.72464
12.024,-313.69955
12.026,-312.2673
12.028,-311.47375
12.03,-311.49722
12.032,-312.1986
12.034,-312.6887
12.036,-313.33853
12.038,-314.02603
12.04,-314.7002
12.042,-314.7782
12.044,-314.94928
12.046,-315.2654
12.048,-315.70084
12.05,-315.62418
12.052,-315.70667
12.054,-316.05383
12.056,-316.70148
12.058,-316.9969
12.06,-317.4945
12.062,-318.1036
12.064,-318.70276
12.066,-318.62558
12.068,-318.5826
12.07,-318.74097
12.072,-319.20306
12.074,-319.36282
12.076,-319.81335
12.078,-320.47452
12.08,-321.20435
12.082,-321.2806
12.084,-321.34177
12.086,-321.4685
12.088,-321.70465
12.09,-321.46954
12.092,-321.39108
12.094,-321.48123
12.096,-321.70465
12.098,-321.45718
12.1,-321.37762
12.102,-321.4877
12.104,-321.70465
12.106,-321.30862
12.108,-320.78116
12.11,-320.06845
12.112,-319.20306
12.114,-317.8127
12.116,-316.90485
12.118,-316.93674
12.12,-318.20242
12.122,-320.14597
12.124,-323.15106
12.126,-326.72974
12.128,-330.21005
12.13,-332.3827
12.132,-333.534
12.134,-333.70065
12.136,-333.21198
12.138,-332.02536
12.14,-331.381
12.142,-331.7451
12.144,-333.21198
12.146,-334.91403
12.148,-336.96286
12.15,-338.75345
12.152,-339.71613
12.154,-338.92108
12.156,-337.01843
12.158,-334.31705
12.16,-331.2107
12.162,-327.4677
12.164,-323.99832
12.166,-320.92984
12.168,-318.20242
12.17,-315.09744
12.172,-312.19516
12.174,-309.5395
12.176,-307.19543
12.178,-304.66425
12.18,-302.7265
12.182,-301.53983
12.184,-301.19162
12.186,-301.143
12.188,-302.0779
12.19,-303.98898
12.192,-306.6951
12.194,-309.29495
12.196,-312.0082
12.198,-314.4314
12.2,-316.20114
12.202,-316.60712
12.204,-316.30887
12.206,-315.56796
12.208,-314.7002
12.21,-313.62476
12.212,-313.04663
12.214,-312.95404
12.216,-313.19925
12.218,-313.41586
12.22,-313.97568
12.222,-314.77603
12.224,-315.70084
12.226,-316.4677
12.228,-317.425
12.23,-318.39877
12.232,-319.20306
12.234,-319.2878
12.236,-319.39365
12.238,-319.69778
12.24,-320.2037
12.242,-319.7438
12.244,-319.06815
12.246,-318.30304
12.248,-317.70212
12.25,-316.6085
12.252,-316.23398
12.254,-316.82843
12.256,-318.20242
12.258,-318.99466
12.26,-319.1439
12.262,-318.09766
12.264,-315.70084
12.266,-311.6944
12.268,-307.42856
12.27,-303.57312
12.272,-300.19098
12.274,-295.90604
12.276,-289.7121
12.278,-279.5844
12.28,-263.66772
12.282,-240.44203
12.284,-210.95883
12.286,-177.07979
12.288,-141.59007
12.29,-106.92521
12.292,-76.0677
12.294,-50.24636
12.296,-29.518778
12.298,-12.975371
12.3,-1.5596176
12.302,2.6439073
12.304,-4.5028644
12.306,-28.015646
12.308,-73.748314
12.31,-144.32317
12.312,-237.65118
12.314,-345.62717
12.316,-456.75327
12.318,-556.9282
12.32,-633.40295
12.322,-677.44244
12.324,-687.8061
12.326,-668.88904
12.328,-629.4004
12.33,-579.0622
12.332,-527.53925
12.334,-480.91473
12.336,-441.78104
12.338,-409.49692
12.34,-383.17792
12.342,-361.24475
12.344,-342.71802
12.346,-326.87564
12.348,-314.55014
12.35,-305.92242
12.352,-300.69128
12.354,-297.54977
12.356,-295.94843
12.358,-294.77902
12.36,-293.18652
12.362,-290.32904
12.364,-286.863
12.366,-283.29227
12.368,-280.17825
12.37,-277.54742
12.372,-275.92438
12.374,-275.2351
12.376,-275.17505
12.378,-275.04965
12.38,-274.8254
12.382,-274.5033
12.384,-274.1744
12.386,-273.57828
12.388,-272.83722
12.39,-271.8905
12.392,-270.67218
12.394,-268.7777
12.396,-266.85938
12.398,-265.23233
12.4,-264.16806
12.402,-263.12952
12.404,-262.94183
12.406,-263.1431
12.408,-263.16742
12.41,-262.05215
12.412,-260.80466
12.414,-259.62152
12.416,-258.66455
12.418,-257.47168
12.42,-256.6865
12.422,-256.0388
12.424,-255.16232
12.426,-253.36288
12.428,-251.2657
12.43,-249.10544
12.432,-247.15723
12.434,-245.20518
12.436,-243.88063
12.438,-243.10591
12.44,-242.65437
12.442,-241.87897
12.444,-241.1964
12.446,-240.61105
12.448,-240.15277
12.45,-239.43625
12.452,-238.9493
12.454,-238.58887
12.456,-238.1515
12.458,-237.04042
12.46,-235.65044
12.462,-233.99411
12.464,-232.14769
12.466,-229.8602
12.468,-227.78766
12.47,-226.04813
12.472,-224.64291
12.474,-223.10713
12.476,-221.87122
12.478,-220.89554
12.48,-220.14005
12.482,-219.19987
12.484,-218.58078
12.486,-218.26964
12.488,-218.13878
12.49,-217.58609
12.492,-216.89912
12.494,-215.93756
12.496,-214.63654
12.498,-212.66872
12.5,-210.74966
12.502,-209.17227
12.504,-208.1324
12.506,-207.26363
12.508,-206.92259
12.51,-206.83786
12.512,-206.63145
12.514,-205.57323
12.516,-204.02051
12.518,-202.10783
12.52,-200.12732
12.522,-198.01749
12.524,-196.5574
12.526,-195.84018
12.528,-195.62445
12.53,-194.99045
12.532,-193.91623
12.534,-192.11198
12.536,-189.62064
12.538,-186.44318
12.54,-183.8251
12.542,-182.5648
12.544,-183.11649
12.546,-184.94167
12.548,-187.95924
12.55,-191.31526
12.552,-194.12349
12.554,-195.32361
12.556,-195.37038
12.558,-194.74231
12.56,-194.12349
12.562,-193.62605
12.564,-194.08765
12.566,-195.52618
12.568,-197.62572
12.57,-199.43732
12.572,-201.10158
12.574,-202.49487
12.576,-203.62955
12.578,-204.0801
12.58,-204.47418
12.582,-204.96353
12.584,-205.63081
12.586,-206.03355
12.588,-206.78365
12.59,-208.0955
12.592,-210.13368
12.594,-212.44908
12.596,-215.4933
12.598,-219.14688
12.6,-223.14195
12.602,-226.63007
12.604,-229.82779
12.606,-232.65312
12.608,-235.1496
12.61,-236.97713
12.612,-238.88788
12.614,-241.21378
12.616,-244.15532
12.618,-247.24507
12.62,-250.89023
12.622,-255.04768
12.624,-259.6652
12.626,-264.21127
12.628,-269.13693
12.63,-274.38916
12.632,-279.67792
12.634,-283.9748
12.636,-287.20862
12.638,-289.0835
12.64,-289.6843
12.642,-289.05054
12.644,-288.58563
12.646,-289.2805
12.648,-291.68555
12.65,-295.1361
12.652,-299.32352
12.654,-303.1708
12.656,-305.69446
12.658,-305.92728
12.66,-304.67212
12.662,-302.8923
12.664,-301.69193
12.666,-301.3423
12.668,-302.53787
12.67,-304.91574
12.672,-307.69574
12.674,-309.55157
12.676,-310.5139
12.678,-310.6168
12.68,-310.19733
12.682,-309.14166
12.684,-308.2995
12.686,-307.8378
12.688,-307.69574
12.69,-307.18524
12.692,-306.7754
12.694,-306.56818
12.696,-306.6951
12.698,-306.69598
12.7,-307.1469
12.702,-308.02426
12.704,-309.1967
12.706,-309.9504
12.708,-310.77472
12.71,-311.69272
12.712,-312.6989
12.714,-313.16644
12.716,-313.6151
12.718,-313.98785
12.72,-314.1999
12.722,-313.63504
12.724,-312.98672
12.726,-312.45374
12.728,-312.1986
12.73,-311.72552
12.732,-311.6476
12.734,-311.8813
12.736,-312.1986
12.738,-311.74646
12.74,-311.01694
12.742,-310.08936
12.744,-309.1967
12.746,-308.1064
12.748,-307.85468
12.75,-308.7352
12.752,-310.69766
12.754,-312.74323
12.756,-314.9313
12.758,-316.7127
12.76,-317.70212
12.762,-317.2604
12.764,-316.38437
12.766,-315.6868
12.768,-315.70084
12.77,-316.08496
12.772,-317.40283
12.774,-319.29678
12.776,-321.20435
12.778,-322.0168
12.78,-322.15335
12.782,-321.76447
12.784,-321.20435
12.786,-320.28818
12.788,-320.0137
12.79,-320.54086
12.792,-321.70465
12.794,-322.51672
12.796,-323.23682
12.798,-323.64615
12.8,-323.70593
12.802,-322.98444
12.804,-322.46942
12.806,-322.50705
12.808,-323.2056
12.81,-323.8013
12.812,-324.6504
12.814,-325.4984
12.816,-326.20752
12.818,-326.2598
12.82,-326.6447
12.822,-327.75565
12.824,-329.70975
12.826,-331.61478
12.828,-333.5552
12.83,-334.91013
12.832,-335.21326
12.834,-333.80377
12.836,-331.8098
12.838,-330.04355
12.84,-329.20944
12.842,-328.99933
12.844,-329.8924
12.846,-331.35596
12.848,-332.71167
12.85,-332.8982
12.852,-332.57178
12.854,-332.16785
12.856,-332.21133
12.858,-332.45425
12.86,-333.5447
12.862,-335.1514
12.864,-336.7142
12.866,-337.16464
12.868,-336.98822
12.87,-336.38837
12.872,-335.71356
12.874,-334.70197
12.876,-334.2012
12.878,-334.2491
12.88,-334.71292
12.882,-334.855
12.884,-335.32745
12.886,-336.25684
12.888,-337.71484
12.89,-339.04178
12.892,-340.72617
12.894,-342.53998
12.896,-344.21896
12.898,-345.0019
12.9,-345.5827
12.902,-346.12735
12.904,-346.72058
12.906,-346.69656
12.908,-346.553
12.91,-346.10965
12.912,-345.2196
12.914,-343.30356
12.916,-341.28323
12.918,-339.5193
12.92,-338.21515
12.922,-336.71225
12.924,-335.3885
12.926,-333.85068
12.928,-331.71103
12.93,-328.22128
12.932,-324.26993
12.934,-320.40018
12.936,-317.20178
12.938,-314.52304
12.94,-313.23566
12.942,-313.2549
12.944,-314.1999
12.946,-314.9935
12.948,-315.9648
12.95,-317.01428
12.952,-318.20242
12.954,-319.10934
12.956,-320.58038
12.958,-322.68033
12.96,-325.20688
12.962,-327.22687
12.964,-328.92477
12.966,-329.96686
12.968,-330.21005
12.97,-329.42288
12.972,-328.46967
12.974,-327.6751
12.976,-327.20816
12.978,-326.81516
12.98,-326.80502
12.982,-326.86407
12.984,-326.70782
12.986,-326.05438
12.988,-325.49988
12.99,-325.1971
12.992,-325.20688
12.994,-324.9264
12.996,-324.9472
12.998,-325.1327
13.0,-325.20688
13.002,-323.87216
13.004,-322.05923
13.006,-320.2683
13.008,-319.20306
13.01,-318.5759
13.012,-319.6327
13.014,-322.28296
13.016,-325.7072
13.018,-327.87524
13.02,-328.27982
13.022,-326.40915
13.024,-322.7053
13.026,-317.84277
13.028,-314.04175
13.03,-312.20474
13.032,-311.6983
13.034,-309.62686
13.036,-303.30142
13.038,-289.6555
13.04,-267.16995
13.042,-236.18036
13.044,-200.52528
13.046,-164.56502
13.048,-132.08403
13.05,-104.36828
13.052,-81.541756
13.054,-61.473248
13.056,-42.026737
13.058,-22.445036
13.06,-6.3432393
13.062,0.18386205
13.064,-10.506684
13.066,-44.65802
13.068,-106.291954
13.07,-193.61334
13.072,-299.19034
13.074,-410.67688
13.076,-514.9979
13.078,-599.55
13.08,-655.41693
13.082,-678.51843
13.084,-671.57086
13.086,-641.1861
13.088,-596.3794
13.09,-545.7778
13.092,-497.40918
13.094,-455.87057
13.096,-422.76895
13.098,-396.92172
13.1,-377.12646
13.102,-361.40683
13.104,-348.22153
13.106,-336.20685
13.108,-325.73206
13.11,-316.87164
13.112,-309.69702
13.114,-303.67737
13.116,-299.30438
13.118,-296.4059
13.12,-294.68747
13.122,-293.30615
13.124,-292.40292
13.126,-291.62817
13.128,-290.68494
13.13,-289.03943
13.132,-287.1397
13.134,-285.27078
13.136,-283.68048
13.138,-282.1191
13.14,-280.74716
13.142,-279.46704
13.144,-278.17697
13.146,-276.54855
13.148,-274.8971
13.15,-273.5212
13.152,-272.67346
13.154,-271.9558
13.156,-271.80188
13.158,-271.9663
13.16,-272.17316
13.162,-271.59897
13.164,-271.22543
13.166,-270.97565
13.168,-270.67218
13.17,-269.52
13.172,-268.35364
13.174,-267.08255
13.176,-265.669
13.178,-263.73633
13.18,-262.3025
13.182,-261.62033
13.184,-261.66647
13.186,-261.64426
13.188,-261.64105
13.19,-261.10468
13.192,-259.6652
13.194,-256.93146
13.196,-253.9651
13.198,-251.50665
13.2,-250.15913
13.202,-249.70197
13.204,-250.38918
13.206,-251.51222
13.208,-252.16042
13.21,-251.17776
13.212,-248.84525
13.214,-245.45345
13.216,-241.65373
13.218,-237.80627
13.22,-235.07948
13.222,-233.75693
13.224,-233.64864
13.226,-233.81693
13.228,-234.16257
13.23,-234.19453
13.232,-233.64864
13.234,-232.15376
13.236,-230.51086
13.238,-229.09651
13.24,-228.14514
13.242,-227.26332
13.244,-226.80438
13.246,-226.51894
13.248,-226.14386
13.25,-225.12453
13.252,-224.0236
13.254,-223.00096
13.256,-222.14131
13.258,-220.96611
13.26,-219.79872
13.262,-218.41553
13.264,-216.63782
13.266,-214.06912
13.268,-211.50345
13.27,-209.39902
13.272,-208.1324
13.274,-207.41963
13.276,-207.62181
13.278,-208.36238
13.28,-209.13304
13.282,-209.09302
13.284,-208.61221
13.286,-207.8618
13.288,-207.13177
13.29,-206.23978
13.292,-205.83159
13.294,-205.87238
13.296,-206.13113
13.298,-205.87149
13.3,-205.42027
13.302,-204.79736
13.304,-204.12985
13.306,-203.14406
13.308,-202.55162
13.31,-202.53554
13.312,-203.12923
13.314,-203.76245
13.316,-204.8047
13.318,-206.14204
13.32,-207.63208
13.322,-208.65573
13.324,-209.65392
13.326,-210.64745
13.328,-211.63463
13.33,-212.09244
13.332,-212.5369
13.334,-213.03691
13.336,-213.63591
13.338,-213.86237
13.34,-214.291
13.342,-215.03546
13.344,-216.1375
13.346,-217.0635
13.348,-218.27992
13.35,-219.80504
13.352,-221.641
13.354,-223.29346
13.356,-225.30496
13.358,-227.76343
13.36,-230.64673
13.362,-233.30627
13.364,-236.0357
13.366,-238.68825
13.368,-241.15341
13.37,-242.92348
13.372,-244.65233
13.374,-246.64746
13.376,-249.15851
13.378,-251.7752
13.38,-254.93663
13.382,-258.49133
13.384,-262.16678
13.386,-265.17773
13.388,-267.86926
13.39,-270.31317
13.392,-272.67346
13.394,-274.63885
13.396,-276.88626
13.398,-279.5708
13.4,-282.67984
13.402,-285.54395
13.404,-288.4426
13.406,-291.2101
13.408,-293.68683
13.41,-295.253
13.412,-296.42188
13.414,-297.34796
13.416,-298.1897
13.418,-298.55548
13.42,-299.0522
13.422,-299.772
13.424,-300.69128
13.426,-301.17926
13.428,-301.62463
13.43,-301.9782
13.432,-302.19223
13.434,-301.72693
13.436,-301.18433
13.438,-300.77264
13.44,-300.69128
13.442,-300.5631
13.444,-301.02048
13.446,-302.1077
13.448,-303.6932
13.45,-304.965
13.452,-306.17737
13.454,-307.13187
13.456,-307.69574
13.458,-307.3055
13.46,-306.66483
13.462,-306.052
13.464,-305.69446
13.466,-305.1506
13.468,-305.01666
13.47,-305.2498
13.472,-305.69446
13.474,-305.6104
13.476,-305.5144
13.478,-305.49594
13.48,-305.69446
13.482,-305.68414
13.484,-306.19342
13.486,-307.25876
13.488,-308.69638
13.49,-309.5849
13.492,-310.21048
13.494,-310.40875
13.496,-310.19733
13.498,-309.23712
13.5,-308.58212
13.502,-308.6776
13.504,-309.69702
13.506,-310.878
13.508,-312.41882
13.51,-313.82938
13.512,-314.7002
13.514,-314.32822
13.516,-313.6092
13.518,-313.07663
13.52,-313.19925
13.522,-313.60214
13.524,-314.81146
13.526,-316.49844
13.528,-318.20242
13.53,-318.98984
13.532,-319.43127
13.534,-319.7484
13.536,-320.2037
13.538,-320.3657
13.54,-320.8625
13.542,-321.55542
13.544,-322.205
13.546,-322.06577
13.548,-321.83994
13.55,-321.80194
13.552,-322.205
13.554,-322.56775
13.556,-323.44385
13.558,-324.60565
13.56,-325.7072
13.562,-325.8854
13.564,-325.72305
13.566,-325.414
13.568,-325.20688
13.57,-324.71292
13.572,-324.66788
13.574,-325.05652
13.576,-325.7072
13.578,-325.82346
13.58,-325.9328
13.582,-326.0531
13.584,-326.20752
13.586,-325.81335
13.588,-325.51437
13.59,-325.32565
13.592,-325.20688
13.594,-324.53574
13.596,-324.0028
13.598,-323.71573
13.6,-323.70593
13.602,-323.33597
13.604,-323.1699
13.606,-323.15045
13.608,-323.2056
13.61,-322.7267
13.612,-322.4684
13.614,-322.60483
13.616,-323.2056
13.618,-323.6063
13.62,-324.29514
13.622,-325.07315
13.624,-325.7072
13.626,-325.45724
13.628,-325.00632
13.63,-324.53595
13.632,-324.20624
13.634,-323.50943
13.636,-323.12878
13.638,-323.05533
13.64,-323.2056
13.642,-322.91406
13.644,-322.86002
13.646,-323.12637
13.648,-323.70593
13.65,-323.89413
13.652,-324.20096
13.654,-324.5057
13.656,-324.70657
13.658,-324.20984
13.66,-323.83325
13.662,-323.80362
13.664,-324.20624
13.666,-324.33554
13.668,-324.62204
13.67,-324.8161
13.672,-324.70657
13.674,-323.6684
13.676,-322.62518
13.678,-322.02054
13.68,-322.205
13.682,-322.6808
13.684,-323.95157
13.686,-325.63934
13.688,-327.20816
13.69,-327.5886
13.692,-327.2571
13.694,-326.36002
13.696,-325.20688
13.698,-323.5658
13.7,-322.4168
13.702,-321.96762
13.704,-322.205
13.706,-322.3948
13.708,-322.9955
13.71,-323.83615
13.712,-324.70657
13.714,-324.84286
13.716,-324.78342
13.718,-324.54584
13.72,-324.20624
13.722,-323.35358
13.724,-322.86862
13.726,-322.97528
13.728,-323.70593
13.73,-324.31137
13.732,-325.17776
13.734,-326.04758
13.736,-326.70782
13.738,-326.52243
13.74,-326.33176
13.742,-326.47342
13.744,-327.20816
13.746,-328.02905
13.748,-329.495
13.75,-331.35452
13.752,-333.21198
13.754,-334.10144
13.756,-334.50327
13.758,-334.48254
13.76,-334.21262
13.762,-333.31064
13.764,-332.60236
13.766,-332.13458
13.768,-331.71103
13.77,-330.39127
13.772,-328.5166
13.774,-325.94284
13.776,-322.7053
13.778,-318.47156
13.78,-314.34756
13.782,-310.82602
13.784,-308.19608
13.786,-305.90137
13.788,-304.44287
13.79,-303.60947
13.792,-303.19287
13.794,-302.54434
13.796,-302.48575
13.798,-303.31277
13.8,-305.19415
13.802,-307.47717
13.804,-310.49045
13.806,-313.75085
13.808,-316.70148
13.81,-318.41653
13.812,-319.414
13.814,-319.89948
13.816,-320.2037
13.818,-320.28293
13.82,-320.82077
13.822,-321.72244
13.824,-322.7053
13.826,-323.25812
13.828,-323.66525
13.83,-323.826
13.832,-323.70593
13.834,-323.1175
13.836,-322.5935
13.838,-322.13324
13.84,-321.70465
13.842,-320.82263
13.844,-320.33768
13.846,-320.47333
13.848,-321.20435
13.85,-321.18082
13.852,-321.01328
13.854,-320.65005
13.856,-320.2037
13.858,-318.89233
13.86,-318.04272
13.862,-318.11487
13.864,-319.20306
13.866,-320.17026
13.868,-321.15485
13.87,-321.61536
13.872,-321.20435
13.874,-319.25732
13.876,-316.68695
13.878,-313.7399
13.88,-310.19733
13.882,-304.59467
13.884,-296.10928
13.886,-283.091
13.888,-264.16806
13.89,-238.30176
13.892,-206.94885
13.894,-172.23926
13.896,-137.0872
13.898,-103.93314
13.9,-75.72608
13.902,-53.610886
13.904,-37.523872
13.906,-26.361769
13.908,-20.820883
13.91,-22.63184
13.912,-35.5226
13.914,-64.10891
13.916,-113.97822
13.918,-187.6593
13.92,-283.18015
13.922,-392.71185
13.924,-505.1164
13.926,-606.5759
13.928,-684.4354
13.93,-729.7948
13.932,-741.05804
13.934,-722.1636
13.936,-681.4335
13.938,-628.42566
13.94,-572.97943
13.942,-521.67303
13.944,-477.80396
13.946,-441.43616
13.948,-412.18372
13.95,-388.56262
13.952,-369.2349
13.954,-352.76154
13.956,-339.19464
13.958,-328.143
13.96,-319.20306
13.962,-311.49524
13.964,-305.3551
13.966,-300.63956
13.968,-297.18906
13.97,-294.30362
13.972,-292.22372
13.974,-290.62827
13.976,-289.18396
13.978,-287.27533
13.98,-285.25586
13.982,-283.32153
13.984,-281.6792
13.986,-280.11462
13.988,-278.89957
13.99,-278.08652
13.992,-277.67664
13.994,-277.29044
13.996,-277.09802
13.998,-277.08783
14.0,-277.17633
14.002,-276.7239
14.004,-276.07153
14.006,-275.0749
14.008,-273.6741
14.01,-271.2756
14.012,-269.14642
14.014,-267.43185
14.016,-266.1693
14.018,-264.7093
14.02,-264.11475
14.022,-264.21774
14.024,-264.66837
14.026,-264.56168
14.028,-264.45
14.03,-264.18564
14.032,-263.66772
14.034,-262.41068
14.036,-261.1648
14.038,-260.06216
14.04,-259.16486
14.042,-258.0329
14.044,-257.22464
14.046,-256.66208
14.048,-256.16296
14.05,-255.08197
14.052,-253.8198
14.054,-252.33362
14.056,-250.65945
14.058,-248.51514
14.06,-246.67168
14.062,-245.35872
14.064,-244.65564
14.066,-244.0576
14.068,-243.87964
14.07,-243.84627
14.072,-243.655
14.074,-242.68329
14.076,-241.42928
14.078,-240.02953
14.08,-238.65182
14.082,-237.02286
14.084,-235.75006
14.086,-234.83353
14.088,-234.14896
14.09,-233.11893
14.092,-232.13956
14.094,-231.16216
14.096,-230.14641
14.098,-228.65686
14.1,-227.22185
14.102,-225.88391
14.104,-224.64291
14.106,-223.06601
14.108,-221.68607
14.11,-220.548
14.112,-219.63972
14.114,-218.47955
14.116,-217.53358
14.118,-216.77286
14.12,-216.1375
14.122,-215.14267
14.124,-214.29755
14.126,-213.63634
14.128,-213.13559
14.13,-212.28209
14.132,-211.5223
14.134,-210.82152
14.136,-210.13368
14.138,-209.0051
14.14,-208.02585
14.142,-207.35909
14.144,-207.13177
14.146,-206.95549
14.148,-207.32068
14.15,-208.12935
14.152,-209.13304
14.154,-209.55461
14.156,-209.64351
14.158,-209.31454
14.16,-208.63272
14.162,-207.3628
14.164,-206.37628
14.166,-206.06458
14.168,-206.63145
14.17,-207.56007
14.172,-209.14038
14.174,-211.09598
14.176,-213.13559
14.178,-214.5925
14.18,-215.97684
14.182,-217.45125
14.184,-219.1394
14.186,-220.55147
14.188,-222.10005
14.19,-223.67282
14.192,-225.14323
14.194,-225.97897
14.196,-226.82185
14.198,-227.96576
14.2,-229.64609
14.202,-231.43456
14.204,-233.71144
14.206,-236.23563
14.208,-238.65182
14.21,-240.14767
14.212,-241.10178
14.214,-241.6746
14.216,-242.15405
14.218,-242.3608
14.22,-243.03653
14.222,-244.32657
14.224,-246.1566
14.226,-247.80904
14.228,-249.55536
14.23,-251.32751
14.232,-253.16106
14.234,-254.68826
14.236,-256.60013
14.238,-259.09207
14.24,-262.16678
14.242,-265.11365
14.244,-268.10373
14.246,-270.8583
14.248,-273.17377
14.25,-274.52563
14.252,-275.62073
14.254,-276.8788
14.256,-278.67728
14.258,-280.7041
14.26,-283.4116
14.262,-286.55426
14.264,-289.6843
14.266,-291.8105
14.268,-293.13992
14.27,-293.68765
14.272,-293.68683
14.274,-292.9873
14.276,-292.50632
14.278,-292.55936
14.28,-293.18652
14.282,-293.64902
14.284,-294.13184
14.286,-294.36426
14.288,-294.18716
14.29,-293.11707
14.292,-291.97635
