time_sec,ecg
0.0,-206.13113
0.002,-229.86859
0.004,-232.32288
0.006,-220.3225
0.008,-204.12985
0.01,-192.49846
0.012,-190.07153
0.014,-195.87715
0.016,-205.1305
0.018,-212.02794
0.02,-213.50795
0.022,-209.86903
0.024,-204.12985
0.026,-199.67058
0.028,-199.12611
0.03,-202.71419
0.032,-208.63272
0.034,-213.94484
0.036,-216.90656
0.038,-217.13689
0.04,-215.63718
0.042,-213.69196
0.044,-212.89236
0.046,-213.93398
0.048,-216.63782
0.05,-219.91101
0.052,-223.14775
0.054,-225.91711
0.056,-228.14514
0.058,-229.63724
0.06,-230.85033
0.062,-232.11336
0.064,-233.64864
0.066,-235.16245
0.068,-236.80434
0.07,-238.51399
0.072,-240.15277
0.074,-241.1915
0.076,-241.78146
0.078,-242.14665
0.08,-242.65437
0.082,-243.19318
0.084,-244.47046
0.086,-246.53229
0.088,-249.15851
0.09,-251.51324
0.092,-253.75423
0.094,-255.7822
0.096,-257.6639
0.098,-259.1029
0.1,-260.7952
0.102,-262.86923
0.104,-265.1687
0.106,-266.78488
0.108,-267.71918
0.11,-267.68094
0.112,-266.66965
0.114,-264.55252
0.116,-262.52414
0.118,-261.39246
0.12,-261.66647
0.122,-262.83063
0.124,-264.92892
0.126,-267.27133
0.128,-269.17123
0.13,-269.73224
0.132,-269.6052
0.134,-269.37112
0.136,-269.67154
0.138,-270.36163
0.14,-271.99738
0.142,-274.279
0.144,-276.67603
0.146,-278.1627
0.148,-279.05637
0.15,-279.47983
0.152,-279.67792
0.154,-279.32733
0.156,-279.05664
0.158,-278.86755
0.16,-278.67728
0.162,-277.95526
0.164,-277.40286
0.166,-277.3717
0.168,-278.17697
0.17,-279.44702
0.172,-281.6512
0.174,-284.5357
0.176,-287.683
0.178,-290.15842
0.18,-292.32324
0.182,-294.26062
0.184,-296.18842
0.186,-297.81076
0.188,-299.87497
0.19,-302.41104
0.192,-305.19415
0.194,-307.3066
0.196,-309.0161
0.198,-310.258
0.2,-311.19797
0.202,-311.67093
0.204,-312.7262
0.206,-314.74268
0.208,-317.70212
0.21,-320.58813
0.212,-323.24734
0.214,-324.95618
0.216,-325.20688
0.218,-323.3843
0.22,-320.51453
0.222,-317.3828
0.224,-314.7002
0.226,-312.27496
0.228,-310.6145
0.23,-309.29218
0.232,-307.69574
0.234,-304.81018
0.236,-301.21826
0.238,-297.42264
0.24,-294.18716
0.242,-291.711
0.244,-291.0894
0.246,-292.39923
0.248,-295.18777
0.25,-298.12338
0.252,-300.98297
0.254,-303.23422
0.256,-304.69385
0.258,-305.04953
0.26,-305.31543
0.262,-305.96094
0.264,-307.19543
0.266,-308.5351
0.268,-310.0594
0.27,-311.24274
0.272,-311.6983
0.274,-311.19507
0.276,-310.54092
0.278,-310.24713
0.28,-310.69766
0.282,-311.72934
0.284,-313.5008
0.286,-315.38892
0.288,-316.70148
0.29,-316.4232
0.292,-315.36548
0.294,-314.10266
0.296,-313.19925
0.298,-311.7835
0.3,-310.92908
0.302,-310.73572
0.304,-311.19797
0.306,-311.15277
0.308,-311.63214
0.31,-312.83978
0.312,-314.7002
0.314,-315.9143
0.316,-316.60776
0.318,-316.27502
0.32,-314.7002
0.322,-311.41364
0.324,-307.71188
0.326,-304.2627
0.328,-301.19162
0.33,-297.13733
0.332,-291.17334
0.334,-281.3053
0.336,-265.669
0.338,-242.68604
0.34,-213.402
0.342,-179.7314
0.344,-144.59198
0.346,-110.6194
0.348,-81.159454
0.35,-57.924126
0.352,-41.526417
0.354,-31.541964
0.356,-29.279324
0.358,-36.857872
0.36,-58.036922
0.362,-97.022804
0.364,-158.62805
0.366,-244.37376
0.368,-351.22342
0.37,-470.3804
0.372,-589.9957
0.374,-695.8128
0.376,-774.99304
0.378,-818.6645
0.38,-825.52075
0.382,-800.0674
0.384,-751.4781
0.386,-690.35913
0.388,-627.6696
0.39,-570.9077
0.392,-523.83325
0.394,-486.34872
0.396,-457.38248
0.398,-434.45425
0.4,-415.26416
0.402,-397.73465
0.404,-381.80347
0.406,-367.41397
0.408,-354.72568
0.41,-343.3597
0.412,-333.97073
0.414,-326.494
0.416,-320.704
0.418,-315.80502
0.42,-312.10825
0.422,-309.45972
0.424,-307.69574
0.426,-306.19778
0.428,-305.16028
0.43,-304.4048
0.432,-303.6932
0.434,-302.4291
0.436,-300.7799
0.438,-298.9303
0.44,-297.18906
0.442,-295.48492
0.444,-294.2977
0.446,-293.7341
0.448,-293.68683
0.45,-293.3497
0.452,-293.0485
0.454,-292.53836
0.456,-291.68555
0.458,-289.77536
0.46,-288.13425
0.462,-286.7984
0.464,-285.68173
0.466,-283.99957
0.468,-282.92676
0.47,-282.386
0.472,-282.1795
0.474,-281.5422
0.476,-281.27524
0.478,-281.34644
0.48,-281.6792
0.482,-281.67673
0.484,-282.0039
0.486,-282.5686
0.488,-283.18015
0.49,-283.14017
0.492,-282.93405
0.494,-282.4722
0.496,-281.6792
0.498,-280.07327
0.5,-278.30722
0.502,-276.48666
0.504,-274.67474
0.506,-272.47476
0.508,-270.5254
0.51,-268.91248
0.512,-267.6703
0.514,-266.3697
0.516,-265.53226
0.518,-265.04868
0.52,-264.66837
0.522,-263.64716
0.524,-262.23816
0.526,-260.26028
0.528,-257.6639
0.53,-254.18279
0.532,-250.72287
0.534,-247.75421
0.536,-245.65628
0.538,-244.19797
0.54,-243.86989
0.542,-244.36858
0.544,-245.15596
0.546,-245.22305
0.548,-244.65366
0.55,-243.26974
0.552,-241.15341
0.554,-238.21568
0.556,-235.46861
0.558,-233.37196
0.56,-232.14769
0.562,-231.31717
0.564,-231.13171
0.566,-231.208
0.568,-231.14705
0.57,-230.26399
0.572,-229.05405
0.574,-227.64262
0.576,-226.14386
0.578,-224.15579
0.58,-222.15204
0.582,-220.02168
0.584,-217.63846
0.586,-214.56091
0.588,-211.4958
0.59,-208.7616
0.592,-206.63145
0.594,-204.80739
0.596,-203.80183
0.598,-203.48514
0.6,-203.62955
0.602,-203.58943
0.604,-203.81522
0.606,-204.33586
0.608,-205.1305
0.61,-205.61777
0.612,-206.1413
0.614,-206.52681
0.616,-206.63145
0.618,-205.98888
0.62,-205.31232
0.622,-204.94061
0.624,-205.1305
0.626,-205.47597
0.628,-206.36188
0.63,-207.52818
0.632,-208.63272
0.634,-208.94566
0.636,-208.96037
0.638,-208.91586
0.64,-209.13304
0.642,-209.41122
0.644,-210.40157
0.646,-212.07063
0.648,-214.13623
0.65,-215.70683
0.652,-216.94264
0.654,-217.72498
0.656,-218.13878
0.658,-217.97665
0.66,-218.13104
0.662,-218.97621
0.664,-220.64037
0.666,-222.4903
0.668,-224.70227
0.67,-226.98392
0.672,-229.14577
0.674,-230.73476
0.676,-232.5131
0.678,-234.90002
0.68,-238.1515
0.682,-241.71805
0.684,-245.73189
0.686,-249.71117
0.688,-253.16106
0.69,-255.29431
0.692,-256.6549
0.694,-257.6316
0.696,-258.66455
0.698,-259.54623
0.7,-260.84467
0.702,-262.46573
0.704,-264.16806
0.706,-265.22592
0.708,-266.1054
0.71,-267.01038
0.712,-268.1706
0.714,-269.18683
0.716,-270.5433
0.718,-272.11874
0.72,-273.6741
0.722,-274.45422
0.724,-274.91733
0.726,-275.24463
0.728,-275.67538
0.73,-275.8582
0.732,-276.42355
0.734,-277.40402
0.736,-278.67728
0.738,-279.50867
0.74,-280.31152
0.742,-281.15457
0.744,-282.1795
0.746,-283.01517
0.748,-284.3424
0.75,-286.26526
0.752,-288.68365
0.754,-290.78964
0.756,-292.78622
0.758,-294.45468
0.76,-295.6881
0.762,-296.03366
0.764,-296.2676
0.766,-296.7419
0.768,-297.6894
0.77,-298.61176
0.772,-299.95126
0.774,-301.5429
0.776,-303.19287
0.778,-304.25485
0.78,-305.37582
0.782,-306.79373
0.784,-308.69638
0.786,-310.57782
0.788,-312.92172
0.79,-315.5513
0.792,-318.20242
0.794,-320.09448
0.796,-321.77582
0.798,-323.41498
0.8,-325.20688
0.802,-326.71048
0.804,-328.51013
0.806,-330.4575
0.808,-332.21133
0.81,-332.80856
0.812,-332.6108
0.814,-331.66443
0.816,-330.21005
0.818,-328.03198
0.82,-326.11447
0.822,-324.70392
0.824,-323.70593
0.826,-322.1425
0.828,-320.1322
0.83,-317.33997
0.832,-313.69955
0.834,-308.95563
0.836,-304.45395
0.838,-301.12302
0.84,-299.69064
0.842,-299.84772
0.844,-301.98343
0.846,-305.42377
0.848,-309.1967
0.85,-311.80826
0.852,-313.34372
0.854,-313.8255
0.856,-313.69955
0.858,-313.1511
0.86,-313.40564
0.862,-314.8055
0.864,-317.20178
0.866,-319.72424
0.868,-322.08115
0.87,-323.5419
0.872,-323.70593
0.874,-322.49283
0.876,-320.9518
0.878,-319.83005
0.88,-319.70337
0.882,-320.49854
0.884,-322.50073
0.886,-325.1363
0.888,-327.70847
0.89,-328.9064
0.892,-329.63895
0.894,-330.43747
0.896,-331.71103
0.898,-332.144
0.9,-332.47263
0.902,-332.49863
0.904,-332.21133
0.906,-330.85428
0.908,-330.07675
0.91,-330.6542
0.912,-332.71167
0.914,-334.65344
0.916,-335.92612
0.918,-335.3979
0.92,-332.71167
0.922,-327.89285
0.924,-323.0398
0.926,-319.26974
0.928,-316.20114
0.93,-310.90662
0.932,-300.48203
0.934,-281.66913
0.936,-253.16106
0.938,-216.06789
0.94,-175.46921
0.942,-136.87679
0.944,-104.56652
0.946,-79.397804
0.948,-60.561146
0.95,-45.298527
0.952,-32.02037
0.954,-22.011648
0.956,-21.993889
0.958,-40.84425
0.96,-87.05538
0.962,-164.63129
0.964,-272.33197
0.966,-401.30185
0.968,-537.34186
0.97,-663.6833
0.972,-766.5206
0.974,-836.07306
0.976,-868.55255
0.978,-865.4294
0.98,-833.8313
0.982,-782.71075
0.984,-721.459
0.986,-657.83636
0.988,-598.7618
0.99,-548.01
0.992,-506.82242
0.994,-473.87637
0.996,-447.839
0.998,-426.43118
1.0,-407.7594
1.002,-390.24683
1.004,-374.42535
1.006,-360.7605
1.008,-349.72247
1.01,-340.8898
1.012,-334.55344
1.014,-330.07312
1.016,-326.70782
1.018,-323.4243
1.02,-320.5852
1.022,-318.30798
1.024,-316.70148
1.026,-315.2926
1.028,-314.17105
1.03,-313.05618
1.032,-311.6983
1.034,-309.65823
1.036,-307.36145
1.038,-305.24457
1.04,-303.6932
1.042,-302.44232
1.044,-301.64142
1.046,-301.00006
1.048,-300.19098
1.05,-298.3866
1.052,-296.50616
1.054,-294.71826
1.056,-293.18652
1.058,-291.19455
1.06,-289.9852
1.062,-289.1635
1.064,-288.18332
1.066,-286.00803
1.068,-283.83643
1.07,-281.9593
1.072,-280.67856
1.074,-279.6356
1.076,-279.73193
1.078,-280.74326
1.08,-282.1795
1.082,-282.9846
1.084,-283.49887
1.086,-283.5656
1.088,-283.18015
1.09,-281.98462
1.092,-280.78873
1.094,-279.70605
1.096,-278.67728
1.098,-277.08643
1.1,-275.3909
1.102,-273.56046
1.104,-271.67282
1.106,-269.49606
1.108,-267.90933
1.11,-267.1432
1.112,-267.16995
1.114,-267.2624
1.116,-267.5156
1.118,-267.44025
1.12,-266.66965
1.122,-264.71265
1.124,-262.41437
1.126,-260.26404
1.128,-258.66455
1.13,-257.33676
1.132,-256.67352
1.134,-256.27945
1.136,-255.66264
1.138,-254.06554
1.14,-252.01393
1.142,-249.76997
1.144,-247.65755
1.146,-245.48119
1.148,-243.8444
1.15,-242.64372
1.152,-241.65373
1.154,-240.25835
1.156,-238.94333
1.158,-237.75325
1.16,-236.65054
1.162,-235.0311
1.164,-233.18022
1.166,-230.89877
1.168,-228.14514
1.17,-224.73227
1.172,-221.70197
1.174,-219.59442
1.176,-218.63908
1.178,-218.15836
1.18,-218.066
1.182,-217.59674
1.184,-216.1375
1.186,-213.1047
1.188,-209.50478
1.19,-206.22748
1.192,-204.12985
1.194,-203.21695
1.196,-203.93579
1.198,-205.70116
1.2,-207.63208
1.202,-208.47267
1.204,-208.41255
1.206,-207.63184
1.208,-206.63145
1.21,-205.51178
1.212,-205.25566
1.214,-206.02904
1.216,-207.63208
1.218,-209.15825
1.22,-210.76491
1.222,-212.26605
1.224,-213.63591
1.226,-214.48251
1.228,-215.48503
1.23,-216.74081
1.232,-218.13878
1.234,-218.90329
1.236,-219.28564
1.238,-219.17424
1.24,-218.63908
1.242,-217.47263
1.244,-216.67809
1.246,-216.79346
1.248,-218.13878
1.25,-220.20667
1.252,-223.21246
1.254,-226.7012
1.256,-230.14641
1.258,-232.65166
1.26,-234.6302
1.262,-236.33528
1.264,-238.1515
1.266,-239.91998
1.268,-242.32785
1.27,-245.3452
1.272,-248.65819
1.274,-251.32103
1.276,-253.4961
1.278,-255.18346
1.28,-256.66327
1.282,-257.90414
1.284,-259.91678
1.286,-263.0431
1.288,-267.16995
1.29,-271.21518
1.292,-274.87085
1.294,-277.46588
1.296,-278.67728
1.298,-278.19473
1.3,-277.24503
1.302,-276.82114
1.304,-277.67664
1.306,-279.4825
1.308,-282.3559
1.31,-285.53952
1.312,-288.18332
1.314,-289.18954
1.316,-289.1096
1.318,-288.52576
1.32,-288.18332
1.322,-288.09705
1.324,-288.97662
1.326,-290.654
1.328,-292.6862
1.33,-294.0935
1.332,-295.21048
1.334,-296.17096
1.336,-297.18906
1.338,-297.84763
1.34,-298.6432
1.342,-299.46774
1.344,-300.19098
1.346,-300.3033
1.348,-300.55737
1.35,-301.2983
1.352,-302.69257
1.354,-304.07565
1.356,-305.56915
1.358,-306.71298
1.36,-307.19543
1.362,-306.5431
1.364,-305.80884
1.366,-305.7012
1.368,-306.6951
1.37,-308.22552
1.372,-310.40262
1.374,-312.57318
1.376,-314.1999
1.378,-314.65213
1.38,-315.0218
1.382,-316.15448
1.384,-318.70276
1.386,-322.1942
1.388,-326.6373
1.39,-331.0115
1.392,-334.21262
1.394,-334.9879
1.396,-333.98184
1.398,-331.9089
1.4,-329.70975
1.402,-327.57007
1.404,-326.384
1.406,-325.9543
1.408,-325.7072
1.41,-324.4729
1.412,-322.5238
1.414,-319.87686
1.416,-316.70148
1.418,-312.60916
1.42,-308.33167
1.422,-303.97705
1.424,-299.69064
1.426,-295.26175
1.428,-291.91837
1.43,-290.39508
1.432,-291.18524
1.434,-293.7889
1.436,-298.2982
1.438,-303.80084
1.44,-309.1967
1.442,-313.1361
1.444,-315.6699
1.446,-316.76532
1.448,-316.70148
1.45,-315.66388
1.452,-314.46786
1.454,-313.29523
1.456,-312.1986
1.458,-311.06693
1.46,-310.48178
1.462,-310.5414
1.464,-311.19797
1.466,-311.8892
1.468,-312.8406
1.47,-313.7063
1.472,-314.1999
1.474,-313.28784
1.476,-312.30313
1.478,-311.97195
1.48,-312.6989
1.482,-312.95645
1.484,-313.21652
1.486,-313.01794
1.488,-312.1986
1.49,-310.0498
1.492,-308.32745
1.494,-307.96692
1.496,-309.1967
1.498,-310.43726
1.5,-310.96277
1.502,-309.4042
1.504,-305.19415
1.506,-298.282
1.508,-290.76724
1.51,-283.83844
1.512,-277.17633
1.514,-267.92172
1.516,-253.21101
1.518,-230.03719
1.52,-197.62572
1.522,-157.89812
1.524,-116.727234
1.526,-80.16689
1.528,-52.53342
1.53,-34.260643
1.532,-23.864124
1.534,-18.208149
1.536,-16.010185
1.538,-19.601353
1.54,-36.874264
1.542,-77.218414
1.544,-148.09421
1.546,-250.59477
1.548,-379.06265
1.55,-520.0071
1.552,-655.9173
1.554,-769.33716
1.556,-848.6983
1.558,-888.8515
1.56,-891.5672
1.562,-863.17065
1.564,-813.5841
1.566,-752.20087
1.568,-686.937
1.57,-623.2213
1.572,-565.7082
1.574,-516.792
1.576,-477.30365
1.578,-446.17328
1.58,-422.36368
1.582,-403.64133
1.584,-387.74667
1.586,-372.5184
1.588,-357.87192
1.59,-344.03964
1.592,-331.71103
1.594,-321.0859
1.596,-313.0569
1.598,-307.4686
1.6,-303.6932
1.602,-300.4832
1.604,-297.6254
1.606,-294.83887
1.608,-292.18588
1.61,-289.63864
1.612,-287.87375
1.614,-287.23505
1.616,-287.683
1.618,-288.40106
1.62,-288.83487
1.622,-288.35455
1.624,-286.68237
1.626,-283.66006
1.628,-280.3503
1.63,-277.65073
1.632,-276.1757
1.634,-275.27448
1.636,-275.34332
1.638,-275.3091
1.64,-274.1744
1.642,-270.8112
1.644,-267.0241
1.646,-263.69565
1.648,-261.66647
1.65,-260.77124
1.652,-261.98218
1.654,-264.51486
1.656,-267.16995
1.658,-268.36435
1.66,-268.385
1.662,-267.32874
1.664,-265.669
1.666,-263.5261
1.668,-261.99533
1.67,-261.14493
1.672,-260.66583
1.674,-259.68274
1.676,-258.46112
1.678,-256.9188
1.68,-255.16232
1.682,-253.01813
1.684,-251.26717
1.686,-250.01814
1.688,-249.15851
1.69,-248.048
1.692,-246.95015
1.694,-245.68222
1.696,-244.15532
1.698,-242.04495
1.7,-240.04675
1.702,-238.37715
1.704,-237.15086
1.706,-235.98276
1.708,-235.25374
1.71,-234.73994
1.712,-234.14896
1.714,-232.87381
1.716,-231.32103
1.718,-229.54382
1.72,-227.64482
1.722,-225.36935
1.724,-223.29205
1.726,-221.4177
1.728,-219.63972
1.73,-217.45845
1.732,-215.29128
1.734,-213.16519
1.736,-211.13431
1.738,-208.89479
1.74,-206.99507
1.742,-205.44164
1.744,-204.12985
1.746,-202.51976
1.748,-200.96248
1.75,-199.3611
1.752,-197.62572
1.754,-195.32329
1.756,-192.98262
1.758,-190.7136
1.76,-188.62
1.762,-186.39612
1.764,-184.59995
1.766,-183.22707
1.768,-182.11586
1.77,-180.59662
1.772,-178.93964
1.774,-177.07854
1.776,-175.1114
1.778,-172.88916
1.78,-171.30293
1.782,-170.69499
1.784,-171.10886
1.786,-171.80492
1.788,-172.75911
1.79,-173.46863
1.792,-173.61044
1.794,-172.76556
1.796,-171.8479
1.798,-171.47897
1.8,-172.10948
1.802,-173.33723
1.804,-175.30765
1.806,-177.43808
1.808,-179.11395
1.81,-179.52878
1.812,-179.29008
1.814,-178.9412
1.816,-179.11395
1.818,-179.78319
1.82,-181.53006
1.822,-184.13446
1.824,-187.11903
1.826,-189.52983
1.828,-191.58623
1.83,-193.3692
1.832,-195.12413
1.834,-196.64723
1.836,-198.60524
1.838,-201.1118
1.84,-204.12985
1.842,-207.08894
1.844,-210.39102
1.846,-214.07729
1.848,-218.13878
1.85,-221.99548
1.852,-225.9049
1.854,-229.68413
1.856,-233.14832
1.858,-235.74066
1.86,-237.9938
1.862,-240.19958
1.864,-242.65437
1.866,-245.07623
1.868,-247.95332
1.87,-251.22414
1.872,-254.662
1.874,-257.4864
1.876,-259.9254
1.878,-261.95724
1.88,-263.66772
1.882,-264.7215
1.884,-265.7767
1.886,-267.06396
1.888,-268.67093
1.89,-270.02432
1.892,-271.4481
1.894,-272.85477
1.896,-274.1744
1.898,-274.88425
1.9,-275.5663
1.902,-276.4474
1.904,-277.67664
1.906,-278.7429
1.908,-280.01715
1.91,-281.38077
1.912,-282.67984
1.914,-283.28775
1.916,-283.71674
1.918,-284.1372
1.92,-284.6811
1.922,-284.8718
1.924,-285.13455
1.926,-285.41888
1.928,-285.68173
1.93,-285.4705
1.932,-285.4815
1.934,-286.00146
1.936,-287.1827
1.938,-288.44504
1.94,-290.09183
1.942,-291.89474
1.944,-293.68683
1.946,-294.95905
1.948,-296.4735
1.95,-298.52768
1.952,-301.19162
1.954,-303.67816
1.956,-306.07394
1.958,-307.96747
1.96,-309.1967
1.962,-309.48633
1.964,-310.07013
1.966,-311.69864
1.968,-314.7002
1.97,-318.1857
1.972,-321.83646
1.974,-324.60095
1.976,-325.7072
1.978,-324.5286
1.98,-322.38208
1.982,-320.45566
1.984,-319.70337
1.986,-319.78937
1.988,-320.68002
1.99,-321.21454
1.992,-320.2037
1.994,-316.50015
1.996,-311.08563
1.998,-305.17386
2.0,-300.19098
2.002,-296.62283
2.004,-295.37628
2.006,-296.03094
2.008,-297.6894
2.01,-298.94476
2.012,-299.9502
2.014,-300.77505
2.016,-301.69193
2.018,-302.39856
2.02,-303.3635
2.022,-304.25903
2.024,-304.69385
2.026,-304.18674
2.028,-303.4466
2.03,-302.9578
2.032,-303.19287
2.034,-304.12225
2.036,-306.05493
2.038,-308.4695
2.04,-310.69766
2.042,-311.9148
2.044,-312.55273
2.046,-312.8626
2.048,-313.19925
2.05,-313.0286
2.052,-313.36844
2.054,-314.331
2.056,-315.70084
2.058,-315.73404
2.06,-315.2595
2.062,-314.57056
2.064,-314.1999
2.066,-313.5594
2.068,-313.98026
2.07,-315.5423
2.072,-317.70212
2.074,-318.61514
2.076,-318.07217
2.078,-315.6579
2.08,-311.6983
2.082,-306.5054
2.084,-301.9889
2.086,-298.88605
2.088,-296.68875
2.09,-292.89218
2.092,-285.41666
2.094,-271.75812
2.096,-250.65945
2.098,-222.28343
2.1,-190.03036
2.102,-157.87173
2.104,-129.58243
2.106,-107.00311
2.108,-91.33442
2.11,-81.73212
2.112,-77.04902
2.114,-76.79188
2.116,-84.0019
2.118,-103.55856
2.12,-141.59007
2.122,-202.85397
2.124,-290.11804
2.126,-400.4839
2.128,-525.33417
2.13,-650.879
2.132,-762.50476
2.134,-846.35345
2.136,-893.0681
2.138,-899.3334
2.14,-869.93207
2.142,-814.4354
2.144,-744.97394
2.146,-672.6344
2.148,-606.7464
2.15,-551.9223
2.152,-508.8237
2.154,-474.92285
2.156,-447.89087
2.158,-425.1792
2.16,-405.2578
2.162,-387.11475
2.164,-371.52338
2.166,-358.74683
2.168,-348.72183
2.17,-340.51804
2.172,-334.16818
2.174,-329.18607
2.176,-325.20688
2.178,-321.53592
2.18,-318.61343
2.182,-316.38763
2.184,-314.7002
2.186,-312.90182
2.188,-311.16415
2.19,-309.42862
2.192,-307.69574
2.194,-305.63077
2.196,-303.64432
2.198,-301.9474
2.2,-300.69128
2.202,-299.48236
2.204,-298.60257
2.206,-297.90878
2.208,-297.18906
2.21,-295.63034
2.212,-294.0104
2.214,-292.33533
2.216,-290.68494
2.218,-288.41333
2.22,-287.02643
2.222,-286.40714
2.224,-286.18207
2.226,-285.25034
2.228,-284.5434
2.23,-283.89648
2.232,-283.18015
2.234,-281.80972
2.236,-280.74716
2.238,-280.06805
2.24,-279.67792
2.242,-278.8563
2.244,-278.09396
2.246,-277.22757
2.248,-276.1757
2.25,-274.5451
2.252,-273.20795
2.254,-272.40662
2.256,-272.17316
2.258,-271.83487
2.26,-271.62036
2.262,-271.15164
2.264,-270.17188
2.266,-268.26822
2.268,-266.35452
2.27,-264.89328
2.272,-264.16806
2.274,-263.6949
2.276,-263.66217
2.278,-263.5034
2.28,-262.66708
2.282,-260.47726
2.284,-257.69556
2.286,-254.88564
2.288,-252.66074
2.29,-251.00809
2.292,-250.54216
2.294,-250.95538
2.296,-251.6601
2.298,-251.62982
2.3,-251.04355
2.302,-249.84291
2.304,-248.15787
2.306,-245.77649
2.308,-243.43242
2.31,-241.23299
2.312,-239.15215
2.314,-236.7164
2.316,-234.48665
2.318,-232.59027
2.32,-231.14705
2.322,-229.79794
2.324,-229.04959
2.326,-228.76212
2.328,-228.64546
2.33,-227.93767
2.332,-226.91748
2.334,-225.48404
2.336,-223.64227
2.338,-221.07802
2.34,-218.55199
2.342,-216.3424
2.344,-214.63654
2.346,-213.06136
2.348,-212.12546
2.35,-211.72366
2.352,-211.63463
2.354,-211.15154
2.356,-210.6501
2.358,-210.12126
2.36,-209.63336
2.362,-208.85065
2.364,-208.4973
2.366,-208.75024
2.368,-209.63336
2.37,-210.53215
2.372,-211.75497
2.374,-213.05396
2.376,-214.13623
2.378,-214.26024
2.38,-213.8732
2.382,-213.09212
2.384,-212.13495
2.386,-210.7773
2.388,-209.85667
2.39,-209.62625
2.392,-210.13368
2.394,-210.72876
2.396,-211.70892
2.398,-212.88985
2.4,-214.13623
2.402,-214.92168
2.404,-215.89276
2.406,-217.26555
2.408,-219.1394
2.41,-220.93425
2.412,-222.97876
2.414,-225.0953
2.416,-227.1445
2.418,-228.61613
2.42,-230.23178
2.422,-232.33467
2.424,-235.1496
2.426,-238.1494
2.428,-241.61385
2.43,-245.22928
2.432,-248.65819
2.434,-251.18362
2.436,-253.39096
2.438,-255.61038
2.44,-258.16425
2.442,-260.68515
2.444,-263.64243
2.446,-266.88535
2.448,-270.17188
2.45,-272.782
2.452,-275.217
2.454,-277.64432
2.456,-280.17825
2.458,-282.2343
2.46,-284.17038
2.462,-285.8457
2.464,-287.1827
2.466,-287.7351
2.468,-288.34103
2.47,-289.4241
2.472,-291.18524
2.474,-292.90417
2.476,-294.6713
2.478,-296.0337
2.48,-296.68875
2.482,-296.13004
2.484,-295.38333
2.486,-295.21002
2.488,-296.18842
2.49,-297.87045
2.492,-300.43063
2.494,-303.25305
2.496,-305.69446
2.498,-306.8528
2.5,-307.43054
2.502,-308.01324
2.504,-309.1967
2.506,-310.7325
2.508,-313.00458
2.51,-315.5355
2.512,-317.70212
2.514,-318.54684
2.516,-318.64893
2.518,-318.49567
2.52,-318.70276
2.522,-319.1647
2.524,-320.58328
2.526,-322.7571
2.528,-325.20688
2.53,-326.86777
2.532,-328.08096
2.534,-328.94055
2.536,-329.70975
2.538,-330.1077
2.54,-330.99347
2.542,-332.5319
2.544,-334.71292
2.546,-336.8445
2.548,-339.4126
2.55,-342.28934
2.552,-345.2196
2.554,-347.2616
2.556,-348.6996
2.558,-349.35553
2.56,-349.22217
2.562,-347.93872
2.564,-346.56882
2.566,-345.59326
2.568,-345.2196
2.57,-344.66647
2.572,-344.02713
2.574,-342.6043
2.576,-339.71613
2.578,-334.42062
2.58,-327.59982
2.582,-320.12134
2.584,-313.19925
2.586,-307.5017
2.588,-304.63657
2.59,-304.99832
2.592,-308.19608
2.594,-312.63177
2.596,-317.64157
2.598,-322.07532
2.6,-325.20688
2.602,-326.43976
2.604,-326.81937
2.606,-327.05692
2.608,-327.70847
2.61,-328.6149
2.612,-329.99487
2.614,-331.23157
2.616,-331.71103
2.618,-330.8822
2.62,-329.5434
2.622,-328.29587
2.624,-327.70847
2.626,-327.57355
2.628,-328.36658
2.63,-329.6151
2.632,-330.7104
2.634,-330.22702
2.636,-329.3855
2.638,-328.9951
2.64,-329.70975
2.642,-330.20352
2.644,-331.17038
2.646,-332.12976
2.648,-332.71167
2.65,-331.86017
2.652,-331.03497
2.654,-330.9338
2.656,-331.71103
2.658,-331.88815
2.66,-331.0907
2.662,-328.39346
2.664,-323.70593
2.666,-317.35944
2.668,-311.6864
2.67,-307.83414
2.672,-305.19415
2.674,-300.4246
2.676,-290.1939
2.678,-271.09222
2.68,-242.15405
2.682,-205.37584
2.684,-167.07408
2.686,-133.95966
2.688,-111.070656
2.69,-99.31795
2.692,-97.20571
2.694,-100.76516
2.696,-107.068115
2.698,-116.30204
2.7,-134.47957
2.702,-170.06458
2.704,-231.14705
2.706,-321.00793
2.708,-437.17566
2.71,-569.1243
2.712,-700.9459
2.714,-814.72314
2.716,-896.6355
2.718,-938.38196
2.72,-939.0974
2.722,-904.1115
2.724,-844.4682
2.726,-772.1487
2.728,-697.94403
2.73,-629.1425
2.732,-570.6401
2.734,-523.45624
2.736,-486.30936
2.738,-456.3377
2.74,-431.9021
2.742,-411.3609
2.744,-393.7505
2.746,-378.07303
2.748,-364.7015
2.75,-353.37393
2.752,-343.71866
2.754,-334.90717
2.756,-327.4514
2.758,-321.50113
2.76,-317.20178
2.762,-314.02023
2.764,-312.11743
2.766,-310.9033
2.768,-309.69702
2.77,-307.64633
2.772,-305.1111
2.774,-302.5901
2.776,-300.69128
2.778,-299.39346
2.78,-298.98724
2.782,-299.1049
2.784,-299.19034
2.786,-298.34332
2.788,-296.9423
2.79,-295.256
2.792,-293.68683
2.794,-291.82846
2.796,-290.80847
2.798,-290.27737
2.8,-289.6843
2.802,-287.80548
2.804,-285.96997
2.806,-284.23068
2.808,-282.67984
2.81,-280.79422
2.812,-279.7993
2.814,-279.5706
2.816,-279.67792
2.818,-279.04163
2.82,-278.08087
2.822,-276.61298
2.824,-274.67474
2.826,-272.05032
2.828,-269.8771
2.83,-268.54688
2.832,-268.1706
2.834,-268.08737
2.836,-268.5273
2.838,-269.0273
2.84,-269.17123
2.842,-268.3172
2.844,-267.12692
2.846,-265.84778
2.848,-264.66837
2.85,-263.18158
2.852,-261.8277
2.854,-260.39142
2.856,-258.66455
2.858,-256.19687
2.86,-253.7833
2.862,-251.82927
2.864,-250.65945
2.866,-249.94379
2.868,-250.03143
2.87,-250.46834
2.872,-250.65945
2.874,-249.70688
2.876,-247.9852
2.878,-245.67618
2.88,-243.15468
2.882,-240.4285
2.884,-238.34517
2.886,-236.98805
2.888,-236.15022
2.89,-235.06407
2.892,-233.93587
2.894,-232.61995
2.896,-231.14705
2.898,-229.31342
2.9,-227.93105
2.902,-227.21938
2.904,-227.1445
2.906,-227.00931
2.908,-226.89621
2.91,-226.37741
2.912,-225.14323
2.914,-222.74712
2.916,-219.96928
2.918,-217.28687
2.92,-215.13686
2.922,-213.35405
2.924,-212.44792
2.926,-212.18039
2.928,-212.13495
2.93,-211.48886
2.932,-210.55356
2.934,-209.37567
2.936,-208.1324
2.938,-206.61781
2.94,-205.51642
2.942,-204.89314
2.944,-204.63017
2.946,-204.08485
2.948,-203.59154
2.95,-203.10114
2.952,-202.6289
2.954,-201.7981
2.956,-201.22707
2.958,-201.0124
2.96,-201.12794
2.962,-201.00194
2.964,-201.00621
2.966,-201.0659
2.968,-201.12794
2.97,-200.74019
2.972,-200.50905
2.974,-200.60733
2.976,-201.12794
2.978,-201.58275
2.98,-202.35252
2.982,-203.27597
2.984,-204.12985
2.986,-204.26173
2.988,-204.15572
2.99,-204.01466
2.992,-204.12985
2.994,-204.325
2.996,-205.34698
2.998,-207.32433
3.0,-210.13368
3.002,-212.9626
3.004,-215.88066
3.006,-218.5322
3.008,-220.64037
3.01,-221.61911
3.012,-222.09341
3.014,-222.4508
3.016,-223.14195
3.018,-224.0802
3.02,-226.0001
3.022,-228.94804
3.024,-232.648
3.026,-236.10425
3.028,-239.2652
3.03,-241.80566
3.032,-243.655
3.034,-244.54611
3.036,-245.43246
3.038,-246.86604
3.04,-249.15851
3.042,-251.75575
3.044,-254.76971
3.046,-257.7225
3.048,-260.1655
3.05,-261.38397
3.052,-262.03784
3.054,-262.62756
3.056,-263.66772
3.058,-264.94296
3.06,-266.96283
3.062,-269.5098
3.064,-272.17316
3.066,-274.02676
3.068,-275.3853
3.07,-276.3605
3.072,-277.17633
3.074,-277.52643
3.076,-278.0344
3.078,-278.7675
3.08,-279.67792
3.082,-280.1763
3.084,-280.77356
3.086,-281.58804
3.088,-282.67984
3.09,-283.5033
3.092,-284.42172
3.094,-285.3309
3.096,-286.18207
3.098,-286.58542
3.1,-287.30115
3.102,-288.63974
3.104,-290.68494
3.106,-292.68475
3.108,-294.7021
3.11,-296.2913
3.112,-297.18906
3.114,-296.9773
3.116,-296.7131
3.118,-297.1165
3.12,-298.69
3.122,-300.9501
3.124,-304.07654
3.126,-307.5034
3.128,-310.69766
3.13,-312.89066
3.132,-314.81787
3.134,-316.863
3.136,-319.20306
3.138,-321.0508
3.14,-322.37637
3.142,-322.54413
3.144,-321.20435
3.146,-318.06448
3.148,-314.61127
3.15,-312.04443
3.152,-311.19797
3.154,-311.5354
3.156,-312.76816
3.158,-313.46854
3.16,-312.1986
3.162,-307.6386
3.164,-300.71454
3.166,-292.7932
3.168,-285.68173
3.17,-280.4258
3.172,-278.49817
3.174,-279.86945
3.176,-283.68048
3.178,-288.16666
3.18,-292.79382
3.182,-296.88516
3.184,-300.19098
3.186,-302.34628
3.188,-304.11337
3.19,-305.70004
3.192,-307.19543
3.194,-308.35052
3.196,-309.5789
3.198,-310.7587
3.2,-311.6983
3.202,-311.97733
3.204,-311.92596
3.206,-311.48853
3.208,-310.69766
3.21,-309.3221
3.212,-308.24887
3.214,-307.82083
3.216,-308.19608
3.218,-308.32285
3.22,-309.05948
3.222,-310.4254
3.224,-312.1986
3.226,-312.6198
3.228,-312.32202
3.23,-311.36978
3.232,-310.19733
3.234,-308.55035
3.236,-308.0725
3.238,-309.2487
3.24,-311.6983
3.242,-313.4247
3.244,-313.5882
3.246,-311.15784
3.248,-306.1948
3.25,-299.3425
3.252,-293.07178
3.254,-288.57947
3.256,-285.18143
3.258,-279.46518
3.26,-267.975
3.262,-247.32117
3.264,-216.63782
3.266,-178.06387
3.268,-137.89638
3.27,-102.76212
3.272,-77.54933
3.274,-63.097973
3.276,-57.954765
3.278,-58.52466
3.28,-62.539783
3.282,-70.998215
3.284,-90.47776
3.286,-129.53584
3.288,-195.62445
3.29,-290.69513
3.292,-410.44666
3.294,-542.6598
3.296,-670.4265
3.298,-775.98267
3.3,-846.7565
3.302,-876.59985
3.304,-867.0516
3.306,-825.4426
3.308,-763.8076
3.31,-694.0361
3.312,-625.8982
3.314,-565.18445
3.316,-515.193
3.318,-475.72336
3.32,-444.78296
3.322,-419.31693
3.324,-397.79196
3.326,-378.9282
3.328,-362.23044
3.33,-347.21338
3.332,-334.64838
3.334,-324.56946
3.336,-316.70148
3.338,-310.1092
3.34,-304.95984
3.342,-301.032
3.344,-298.1897
3.346,-295.85022
3.348,-294.27603
3.35,-293.17648
3.352,-292.18588
3.354,-290.67075
3.356,-288.90222
3.358,-287.1462
3.36,-285.68173
3.362,-284.241
3.364,-282.92514
3.366,-281.48053
3.368,-279.67792
3.37,-277.084
3.372,-274.44284
3.374,-272.31052
3.376,-271.17252
3.378,-270.5165
3.38,-271.12326
3.382,-272.29034
3.384,-273.17377
3.386,-272.44116
3.388,-271.31772
3.39,-269.97797
3.392,-268.67093
3.394,-267.02707
3.396,-266.19397
3.398,-266.0428
3.4,-266.1693
3.402,-265.6144
3.404,-264.8656
3.406,-263.8613
3.408,-262.66708
3.41,-260.9741
3.412,-259.61533
3.414,-258.70007
3.416,-258.16425
3.418,-257.40347
3.42,-256.82367
3.422,-256.28778
3.424,-255.66264
3.426,-254.4391
3.428,-253.16585
3.43,-251.8963
3.432,-250.65945
3.434,-249.06386
3.436,-247.6844
3.438,-246.55695
3.44,-245.65628
3.442,-244.53362
3.444,-243.68208
3.446,-243.07982
3.448,-242.65437
3.45,-241.9189
3.452,-241.30795
3.454,-240.7533
3.456,-240.15277
3.458,-239.02885
3.46,-237.835
3.462,-236.55717
3.464,-235.1496
3.466,-233.18044
3.468,-231.15033
3.47,-229.11479
3.472,-227.1445
3.474,-224.96283
3.476,-223.20024
3.478,-221.94724
3.48,-221.14069
3.482,-220.20114
3.484,-219.36325
3.486,-218.39554
3.488,-217.13814
3.49,-215.21515
3.492,-213.31061
3.494,-211.71603
3.496,-210.634
3.498,-209.71524
3.5,-209.28871
3.502,-209.05598
3.504,-208.63272
3.506,-207.3292
3.508,-205.53632
3.51,-203.38927
3.512,-201.12794
3.514,-198.61911
3.516,-196.56767
3.518,-195.08879
3.52,-194.12349
3.522,-193.09966
3.524,-192.33357
3.526,-191.70938
3.528,-191.12158
3.53,-190.08354
3.532,-189.09546
3.534,-188.247
3.536,-187.61935
3.538,-186.85307
3.54,-186.50899
3.542,-186.62794
3.544,-187.11903
3.546,-187.34856
3.548,-187.59216
3.55,-187.7085
3.552,-187.61935
3.554,-186.91824
3.556,-186.27155
3.558,-185.94768
3.56,-186.11841
3.562,-186.34189
3.564,-186.97322
3.566,-187.81725
3.568,-188.62
3.57,-188.72992
3.572,-188.61697
3.574,-188.48753
3.576,-188.62
3.578,-188.81725
3.58,-189.7604
3.582,-191.55872
3.584,-194.12349
3.586,-196.75475
3.588,-199.66345
3.59,-202.66737
3.592,-205.63081
3.594,-208.0297
3.596,-210.39278
3.598,-212.88748
3.6,-215.63718
3.602,-218.21245
3.604,-221.04228
3.606,-224.06894
3.608,-227.1445
3.61,-229.61977
3.612,-231.83788
3.614,-233.82338
3.616,-235.64992
3.618,-236.9531
3.62,-238.3479
3.622,-240.04144
3.624,-242.15405
3.626,-244.22038
3.628,-246.64293
3.63,-249.34596
3.632,-252.16042
3.634,-254.38281
3.636,-256.34097
3.638,-258.06412
3.64,-259.6652
3.642,-260.80298
3.644,-262.16504
3.646,-263.95328
3.648,-266.1693
3.65,-268.08035
3.652,-269.85287
3.654,-271.25607
3.656,-272.17316
3.658,-272.18295
3.66,-272.0653
3.662,-272.28198
3.664,-273.17377
3.666,-274.32474
3.668,-276.02637
3.67,-277.94962
3.672,-279.67792
3.674,-280.41797
3.676,-280.57028
3.678,-280.36835
3.68,-280.17825
3.682,-279.88654
3.684,-280.25568
3.686,-281.40228
3.688,-283.18015
3.69,-284.76202
3.692,-286.3148
3.694,-287.64093
3.696,-288.68365
3.698,-289.0502
3.7,-289.54083
3.702,-290.5109
3.704,-292.18588
3.706,-294.0963
3.708,-296.70926
3.71,-299.94394
3.712,-303.6932
3.714,-307.34888
3.716,-311.37994
3.718,-315.63443
3.72,-319.70337
3.722,-322.43698
3.724,-323.75916
3.726,-323.32156
3.728,-321.20435
3.73,-317.47986
3.732,-313.67755
3.734,-310.76642
3.736,-309.1967
3.738,-308.14175
3.74,-307.2483
3.742,-305.3863
3.744,-301.69193
3.746,-295.5234
3.748,-288.28235
3.75,-281.4839
3.752,-276.67603
3.754,-274.33148
3.756,-275.14417
3.758,-278.3692
3.76,-282.67984
3.762,-286.2407
3.764,-288.76123
3.766,-290.1063
3.768,-290.68494
3.77,-290.77902
3.772,-291.4288
3.774,-292.8121
3.776,-294.68747
3.778,-296.3855
3.78,-297.82574
3.782,-298.6385
3.784,-298.69
3.786,-297.9069
3.788,-297.05695
3.79,-296.44443
3.792,-296.18842
3.794,-295.66296
3.796,-295.39172
3.798,-295.28052
3.8,-295.18777
3.802,-293.86893
3.804,-292.4995
3.806,-291.62735
3.808,-291.68555
3.81,-291.59494
3.812,-292.13412
3.814,-293.08435
3.816,-294.18716
3.818,-294.47
3.82,-294.79587
3.822,-295.38293
3.824,-296.18842
3.826,-296.10684
3.828,-295.177
3.83,-292.90936
3.832,-289.18396
3.834,-283.75385
3.836,-277.70438
3.838,-271.04742
3.84,-262.66708
3.842,-249.77702
3.844,-230.37584
3.846,-202.82864
3.848,-167.60663
3.85,-127.27985
3.852,-87.577545
3.854,-54.09741
3.856,-31.019733
3.858,-19.555983
3.86,-19.91854
3.862,-31.147566
3.864,-53.534058
3.866,-89.25516
3.868,-143.51212
3.87,-220.57098
3.872,-321.20435
3.874,-439.78793
3.876,-565.5163
3.878,-682.75665
3.88,-775.49335
3.882,-831.23517
3.884,-845.8401
3.886,-822.6793
3.888,-771.4908
3.89,-704.58655
3.892,-634.8183
3.894,-571.20667
3.896,-518.3297
3.898,-476.31284
3.9,-443.8485
3.902,-418.16696
3.904,-396.7524
3.906,-377.4696
3.908,-360.18762
3.91,-344.86646
3.912,-331.71103
3.914,-320.44177
3.916,-311.67673
3.918,-305.24603
3.92,-300.69128
3.922,-296.9305
3.924,-293.90216
3.926,-291.21387
3.928,-288.68365
3.93,-285.94595
3.932,-283.58804
3.934,-281.82187
3.936,-280.67856
3.938,-279.67346
3.94,-278.8058
3.942,-277.9773
3.944,-277.17633
3.946,-276.11435
3.948,-275.1135
3.95,-274.29025
3.952,-273.6741
3.954,-272.71628
3.956,-271.88916
3.958,-271.07843
3.96,-270.17188
3.962,-268.38858
3.964,-266.88565
3.966,-265.53848
3.968,-264.16806
3.97,-262.01236
3.972,-260.32404
3.974,-259.09644
3.976,-258.16425
3.978,-256.77554
3.98,-255.63658
3.982,-254.63501
3.984,-253.66136
3.986,-252.20592
3.988,-251.02171
3.99,-250.18413
3.992,-249.65883
3.994,-248.88776
3.996,-248.3132
3.998,-247.7851
4.0,-247.15723
4.002,-245.96095
4.004,-244.81326
4.006,-243.853
4.008,-243.15468
4.01,-242.30283
4.012,-241.71936
4.014,-241.23917
4.016,-240.65309
4.018,-239.4431
4.02,-238.11964
4.022,-236.80914
4.024,-235.64992
4.026,-234.37794
4.028,-233.52446
4.03,-233.01599
4.032,-232.648
4.034,-231.81647
4.036,-230.83383
4.038,-229.61746
4.04,-228.14514
4.042,-226.11037
4.044,-224.11278
4.046,-222.27353
4.048,-220.64037
4.05,-218.85332
4.052,-217.37044
4.054,-216.15895
4.056,-215.13686
4.058,-213.8607
4.06,-212.73097
4.062,-211.68867
4.064,-210.634
4.066,-209.111
4.068,-207.52437
4.07,-205.86446
4.072,-204.12985
4.074,-202.00381
4.076,-200.01341
4.078,-198.22621
4.08,-196.62509
4.082,-194.76054
4.084,-192.97578
4.086,-191.14455
4.088,-189.12032
4.09,-186.43506
4.092,-183.58698
4.094,-180.74245
4.096,-178.11331
4.098,-175.5358
4.1,-173.66064
4.102,-172.56265
4.104,-172.10948
4.106,-171.61258
4.108,-171.23262
4.11,-170.75961
4.112,-170.10822
4.114,-168.9524
4.116,-167.99925
4.118,-167.51738
4.12,-167.60663
4.122,-167.72314
4.124,-168.08899
4.126,-168.44719
4.128,-168.60725
4.13,-168.12207
4.132,-167.67613
4.134,-167.6032
4.136,-168.10695
4.138,-168.6933
4.14,-169.55658
4.142,-170.3182
4.144,-170.60854
4.146,-169.82095
4.148,-168.65279
4.15,-167.68954
4.152,-167.60663
4.154,-168.4711
4.156,-170.95322
4.158,-174.86798
4.16,-179.61426
4.162,-183.92517
4.164,-187.57889
4.166,-190.27768
4.168,-192.12222
4.17,-193.09813
4.172,-194.31062
4.174,-196.3905
4.176,-199.627
4.178,-203.40627
4.18,-207.6982
4.182,-211.9417
4.184,-215.63718
4.186,-218.08307
4.188,-219.87679
4.19,-221.53716
4.192,-223.64227
4.194,-226.12059
4.196,-229.5266
4.198,-233.69002
4.2,-238.1515
4.202,-241.87996
4.204,-244.92848
4.206,-247.27196
4.208,-249.15851
4.21,-250.50693
4.212,-252.2078
4.214,-254.59442
4.216,-257.6639
4.218,-260.5798
4.22,-263.32852
4.222,-265.57077
4.224,-267.16995
4.226,-267.76395
4.228,-268.21747
4.23,-269.07294
4.232,-270.67218
4.234,-272.50473
4.236,-274.7103
4.238,-276.8897
4.24,-278.67728
4.242,-279.4491
4.244,-279.83533
4.246,-280.27887
4.248,-281.17886
4.25,-282.21112
4.252,-283.73676
4.254,-285.4999
4.256,-287.1827
4.258,-288.1017
4.26,-288.83984
4.262,-289.7561
4.264,-291.18524
4.266,-292.7286
4.268,-294.73697
4.27,-296.8704
4.272,-298.69
4.274,-299.37558
4.276,-299.51196
4.278,-299.57367
4.28,-300.19098
4.282,-301.37347
4.284,-303.924
4.286,-307.7226
4.288,-312.1986
4.29,-315.99408
4.292,-318.93304
4.294,-320.65503
4.296,-321.20435
4.298,-320.45673
4.3,-319.62292
4.302,-319.30502
4.304,-319.70337
4.306,-319.96445
4.308,-320.0098
4.31,-319.1094
4.312,-316.70148
4.314,-312.13016
4.316,-306.49344
4.318,-300.80844
4.32,-296.18842
4.322,-292.944
4.324,-292.05377
4.326,-293.3604
4.328,-296.18842
4.33,-299.10553
4.332,-301.90063
4.334,-304.13177
4.336,-305.69446
4.338,-306.32977
4.34,-306.88803
4.342,-307.64706
4.344,-308.69638
4.346,-309.70724
4.348,-310.89484
4.35,-311.96954
4.352,-312.6989
4.354,-312.89474
4.356,-313.06027
4.358,-313.31378
4.36,-313.69955
4.362,-313.89032
4.364,-314.29675
4.366,-314.78928
4.368,-315.20053
4.37,-314.5476
4.372,-313.9268
4.374,-313.86594
4.376,-314.7002
4.378,-315.04446
4.38,-315.67752
4.382,-316.4351
4.384,-317.20178
4.386,-316.8594
4.388,-316.62546
4.39,-316.89688
4.392,-317.70212
4.394,-317.6942
4.396,-316.9056
4.398,-314.7751
4.4,-311.19797
4.402,-305.94742
4.404,-300.50314
4.406,-295.31387
4.408,-289.6843
4.41,-280.965
4.412,-267.02576
4.414,-245.51501
4.416,-215.63718
4.418,-178.27519
4.42,-137.55208
4.422,-97.7918
4.424,-62.539783
4.426,-32.99833
4.428,-9.942529
4.43,6.886177
4.432,16.510504
4.434,15.993107
4.436,-1.2787616
4.438,-42.149994
4.44,-111.57098
4.442,-209.47568
4.444,-331.15863
4.446,-465.93634
4.448,-599.8816
4.45,-718.42914
4.452,-811.06946
4.454,-871.40295
4.456,-898.0713
4.458,-893.41614
4.46,-863.77783
4.462,-816.22876
4.464,-757.9822
4.466,-695.15424
4.468,-634.03625
4.47,-578.923
4.472,-532.3386
4.474,-494.40427
4.476,-464.76196
4.478,-441.35638
4.48,-421.7683
4.482,-403.4938
4.484,-386.1595
4.486,-369.8325
4.488,-355.22598
4.49,-342.68698
4.492,-333.3657
4.494,-327.25836
4.496,-323.70593
4.498,-321.18335
4.5,-319.10593
4.502,-316.72556
4.504,-313.69955
4.506,-309.74582
4.508,-305.5977
4.51,-301.91235
4.512,-299.19034
4.514,-297.2519
4.516,-296.08
4.518,-295.35077
4.52,-294.68747
4.522,-293.42017
4.524,-291.86896
4.526,-290.32712
4.528,-289.18396
4.53,-288.06085
4.532,-287.95105
4.534,-288.51923
4.536,-289.18396
4.538,-288.6008
4.54,-287.8275
4.542,-286.6976
4.544,-285.18143
4.546,-282.75073
4.548,-280.93005
4.55,-279.92676
4.552,-279.67792
4.554,-279.37155
4.556,-279.63342
4.558,-280.1746
4.56,-280.67856
4.562,-280.39386
4.564,-279.96777
4.566,-279.40088
4.568,-278.67728
4.57,-277.30444
4.572,-275.9339
4.574,-274.57425
4.576,-273.17377
4.578,-271.2334
4.58,-269.36432
4.582,-267.65118
4.584,-266.1693
4.586,-264.55844
4.588,-263.4537
4.59,-262.8635
4.592,-262.66708
4.594,-262.24887
4.596,-261.96228
4.598,-261.64926
4.6,-261.16614
4.602,-260.02493
4.604,-258.77438
4.606,-257.4776
4.608,-256.16296
4.61,-254.4386
4.612,-252.8515
4.614,-251.42862
4.616,-250.15913
4.618,-248.63214
4.62,-247.38701
4.622,-246.42467
4.624,-245.65628
4.626,-244.53778
4.628,-243.42435
4.63,-242.17159
4.632,-240.65309
4.634,-238.4469
4.636,-236.16934
4.638,-234.01598
4.64,-232.14769
4.642,-230.25142
4.644,-228.8204
4.646,-227.71117
4.648,-226.64418
4.65,-224.91785
4.652,-222.84856
4.654,-220.39606
4.656,-217.63846
4.658,-214.36574
4.66,-211.36983
4.662,-208.91899
4.664,-207.13177
4.666,-205.54912
4.668,-204.5217
4.67,-203.81541
4.672,-203.12923
4.674,-201.77455
4.676,-200.1646
4.678,-198.38663
4.68,-196.62509
4.682,-194.67172
4.684,-193.28833
4.686,-192.6279
4.688,-192.62254
4.69,-192.55849
4.692,-192.6251
4.694,-192.54407
4.696,-192.12222
4.698,-190.86853
4.7,-189.49306
4.702,-188.32341
4.704,-187.61935
4.706,-187.01454
4.708,-186.99046
4.71,-187.42496
4.712,-188.11967
4.714,-188.44203
4.716,-188.88779
4.718,-189.57983
4.72,-190.62126
4.722,-191.55437
4.724,-192.83673
4.726,-194.39775
4.728,-196.12477
4.73,-197.46208
4.732,-198.97067
4.734,-200.8217
4.736,-203.12923
4.738,-205.4043
4.74,-208.05768
4.742,-211.00197
4.744,-214.13623
4.746,-216.94083
4.748,-219.9698
4.75,-223.36696
4.752,-227.1445
4.754,-230.64049
4.756,-234.04015
4.758,-237.09302
4.76,-239.65245
4.762,-241.30292
4.764,-242.86664
4.766,-244.86067
4.768,-247.65755
4.77,-250.81294
4.772,-254.52129
4.774,-258.3189
4.776,-261.66647
4.778,-263.6679
4.78,-264.76318
4.782,-265.2822
4.784,-265.669
4.786,-265.77106
4.788,-266.27966
4.79,-267.2737
4.792,-268.67093
4.794,-269.839
4.796,-271.23294
4.798,-272.9801
4.8,-275.17505
4.802,-277.28076
4.804,-279.62177
4.806,-282.00388
4.808,-284.1808
4.81,-285.4769
4.812,-286.31818
4.814,-286.83777
4.816,-287.1827
4.818,-286.9759
4.82,-286.75842
4.822,-286.6297
4.824,-286.68237
4.826,-286.55737
4.828,-286.96243
4.83,-288.1452
4.832,-290.1846
4.834,-292.41672
4.836,-295.01114
4.838,-297.56628
4.84,-299.69064
4.842,-300.66858
4.844,-301.16043
4.846,-301.64008
4.848,-302.69257
4.85,-304.2969
4.852,-307.23853
4.854,-311.3981
4.856,-316.20114
4.858,-320.26144
4.86,-323.30347
4.862,-324.81522
4.864,-324.70657
4.866,-322.8257
4.868,-320.46567
4.87,-318.432
4.872,-317.20178
4.874,-316.21786
4.876,-315.5486
4.878,-314.4551
4.88,-312.1986
4.882,-307.86108
4.884,-302.20355
4.886,-295.97794
4.888,-290.1846
4.89,-285.24265
4.892,-282.3809
4.894,-281.7986
4.896,-283.18015
4.898,-285.3782
4.9,-288.23813
4.902,-291.15585
4.904,-293.68683
4.906,-295.18954
4.908,-296.13422
4.91,-296.59573
4.912,-296.68875
4.914,-296.33475
4.916,-296.10687
4.918,-296.06583
4.92,-296.18842
4.922,-296.2295
4.924,-296.57205
4.926,-297.11145
4.928,-297.6894
4.93,-297.79092
4.932,-297.90088
4.934,-298.0349
4.936,-298.1897
4.938,-297.39108
4.94,-296.7519
4.942,-296.6521
4.944,-297.18906
4.946,-296.74066
4.948,-295.9377
4.95,-294.68018
4.952,-293.18652
4.954,-291.013
4.956,-289.8195
4.958,-290.25018
4.96,-292.18588
4.962,-293.8843
4.964,-294.59146
4.966,-293.12927
4.968,-289.18396
4.97,-282.9313
4.972,-276.41217
4.974,-270.65283
4.976,-265.1687
4.978,-257.11975
4.98,-243.71356
4.982,-222.109
4.984,-191.6219
4.986,-154.15056
4.988,-115.31551
4.99,-80.99018
4.992,-55.535328
4.994,-39.77102
4.996,-32.62447
4.998,-31.221107
5.0,-34.021645
5.002,-42.529396
5.004,-63.286064
5.006,-104.48859
5.008,-173.11012
5.01,-270.85855
5.012,-393.44754
5.014,-529.0765
5.016,-661.4208
5.018,-773.1835
5.02,-851.6873
5.022,-890.0623
5.024,-888.56525
5.026,-853.05817
5.028,-794.19916
5.03,-723.1683
5.032,-649.91345
5.034,-581.3282
5.036,-522.25757
5.038,-474.15875
5.04,-436.27756
5.042,-406.12164
5.044,-381.83035
5.046,-361.32495
5.048,-343.21835
5.05,-326.49634
5.052,-311.78256
5.054,-299.43787
5.056,-289.6843
5.058,-282.00284
5.06,-276.50128
5.062,-272.60275
5.064,-269.67154
5.066,-266.80682
5.068,-264.09598
5.07,-261.4066
5.072,-258.66455
5.074,-255.53328
5.076,-252.28125
5.078,-249.08548
5.08,-246.1566
5.082,-243.40002
5.084,-241.15973
5.086,-239.56941
5.088,-238.65182
5.09,-237.95091
5.092,-237.67157
5.094,-237.63739
5.096,-237.65118
5.098,-236.91374
5.1,-236.2874
5.102,-235.5861
5.104,-234.64928
5.106,-232.74593
5.108,-231.31273
5.11,-230.33911
5.112,-229.64609
5.114,-228.45956
5.116,-227.67442
5.118,-227.14268
5.12,-226.64418
5.122,-225.52713
5.124,-224.43294
5.126,-223.32408
5.128,-222.14131
5.13,-220.43936
5.132,-218.83942
5.134,-217.39717
5.136,-216.1375
5.138,-214.71169
5.14,-213.67152
5.142,-213.01663
5.144,-212.63527
5.146,-211.98451
5.148,-211.35855
5.15,-210.60768
5.152,-209.63336
5.154,-208.11008
5.156,-206.64734
5.158,-205.44556
5.16,-204.63017
5.162,-203.8776
5.164,-203.52907
5.166,-203.37633
5.168,-203.12923
5.17,-202.2111
5.172,-200.93777
5.174,-199.35818
5.176,-197.62572
5.178,-195.64792
5.18,-194.0853
5.182,-193.08607
5.184,-192.62254
5.186,-192.21196
5.188,-192.04654
5.19,-191.90799
5.192,-191.6219
5.194,-190.80986
5.196,-189.92566
5.198,-189.03627
5.2,-188.11967
5.202,-186.7506
5.204,-185.18642
5.206,-183.31459
5.208,-181.11522
5.21,-178.42491
5.212,-175.93965
5.214,-173.96123
5.216,-172.6098
5.218,-171.44995
5.22,-170.5579
5.222,-169.54576
5.224,-168.10695
5.226,-165.87404
5.228,-163.50865
5.23,-161.4597
5.232,-160.10185
5.234,-159.23245
5.236,-159.07118
5.238,-159.1993
5.24,-159.10121
5.242,-158.06778
5.244,-156.44598
5.246,-154.49515
5.248,-152.59708
5.25,-150.73553
5.252,-149.49252
5.254,-148.8478
5.256,-148.59453
5.258,-148.12144
5.26,-147.69548
5.262,-147.33118
5.264,-147.09358
5.266,-146.66689
5.268,-146.46802
5.27,-146.47243
5.272,-146.59326
5.274,-146.37709
5.276,-146.2449
5.278,-146.29584
5.28,-146.59326
5.282,-146.73999
5.284,-147.07974
5.286,-147.5514
5.288,-148.09421
5.29,-148.33261
5.292,-148.79056
5.294,-149.67136
5.296,-151.09612
5.298,-152.65297
5.3,-154.60942
5.302,-156.81259
5.304,-159.10121
5.306,-160.99687
5.308,-162.94447
5.31,-165.11047
5.312,-167.60663
5.314,-170.02443
5.316,-172.65016
5.318,-175.37982
5.32,-178.11331
5.322,-180.428
5.324,-182.82321
5.326,-185.51239
5.328,-188.62
5.33,-191.6872
5.332,-194.88928
5.334,-197.963
5.336,-200.62762
5.338,-202.30496
5.34,-203.4556
5.342,-204.42514
5.344,-205.63081
5.346,-206.98238
5.348,-209.01727
5.35,-211.67815
5.352,-214.63654
5.354,-216.97964
5.356,-218.70686
5.358,-219.70866
5.36,-220.14005
5.362,-219.94455
5.364,-220.01773
5.366,-220.84662
5.368,-222.64163
5.37,-224.8327
5.372,-227.42458
5.374,-229.98676
5.376,-232.14769
5.378,-233.33308
5.38,-234.0527
5.382,-234.69157
5.384,-235.64992
5.386,-236.77945
5.388,-238.47705
5.39,-240.55643
5.392,-242.65437
5.394,-243.99283
5.396,-244.80696
5.398,-245.24588
5.4,-245.65628
5.402,-246.0195
5.404,-247.09875
5.406,-249.04143
5.408,-251.6601
5.41,-254.07722
5.412,-256.25656
5.414,-257.94238
5.416,-259.16486
5.418,-259.81976
5.42,-260.90952
5.422,-262.96686
5.424,-266.1693
5.426,-269.76508
5.428,-273.54364
5.43,-276.7285
5.432,-278.67728
5.434,-278.698
5.436,-277.56323
5.438,-275.98102
5.44,-274.67474
5.442,-273.60254
5.444,-273.19745
5.446,-272.97897
5.448,-272.17316
5.45,-269.60175
5.452,-265.42465
5.454,-259.88525
5.456,-253.66136
5.458,-247.21112
5.46,-241.96802
5.462,-238.67218
5.464,-237.65118
5.466,-238.36954
5.468,-240.92558
5.47,-244.75206
5.472,-249.15851
5.474,-253.06578
5.476,-256.39444
5.478,-258.80588
5.48,-260.1655
5.482,-260.3246
5.484,-259.92047
5.486,-259.26678
5.488,-258.66455
5.49,-258.25195
5.492,-258.5165
5.494,-259.40244
5.496,-260.66583
5.498,-261.7911
5.5,-262.86926
5.502,-263.68793
5.504,-264.16806
5.506,-263.72134
5.508,-263.45276
5.51,-263.8842
5.512,-265.1687
5.514,-265.76456
5.516,-266.0303
5.518,-265.6555
5.52,-264.66837
5.522,-262.53326
5.524,-260.87228
5.526,-260.5137
5.528,-261.66647
5.53,-262.99884
5.532,-264.02838
5.534,-263.72174
5.536,-261.66647
5.538,-257.7794
5.54,-253.7952
5.542,-250.76675
5.544,-248.65819
5.546,-245.3996
5.548,-238.80937
5.55,-226.10362
5.552,-205.63081
5.554,-177.30629
5.556,-144.16766
5.558,-109.93752
5.56,-78.04965
5.562,-50.00947
5.564,-26.634895
5.566,-7.314701
5.568,8.005093
5.57,17.772972
5.572,16.70255
5.574,-1.9863727
5.576,-45.028645
5.578,-116.08544
5.58,-215.01147
5.582,-335.3244
5.584,-465.296
5.586,-589.6949
5.588,-694.36414
5.59,-767.8266
5.592,-804.0115
5.594,-802.6874
5.596,-770.2682
5.598,-716.40106
5.6,-651.91473
5.602,-586.0163
5.604,-526.14325
5.606,-475.87268
5.608,-435.77722
5.61,-404.0355
5.612,-379.0605
5.614,-358.9215
5.616,-342.2177
5.618,-327.65262
5.62,-315.2616
5.622,-304.71487
5.624,-295.6881
5.626,-287.50412
5.628,-280.61215
5.63,-275.1382
5.632,-271.17252
5.634,-268.20422
5.636,-266.32324
5.638,-265.00345
5.64,-263.66772
5.642,-261.60834
5.644,-259.12125
5.646,-256.63287
5.648,-254.662
5.65,-253.25687
5.652,-252.57193
5.654,-252.35437
5.656,-252.16042
5.658,-251.25526
5.66,-249.68211
5.662,-247.66135
5.664,-245.65628
5.666,-243.63159
5.668,-242.68387
5.67,-242.80794
5.672,-243.655
5.674,-244.00203
5.676,-244.53316
5.678,-244.71468
5.68,-244.15532
5.682,-242.21056
5.684,-240.229
5.686,-238.62425
5.688,-237.65118
5.69,-236.87578
5.692,-236.87085
5.694,-237.28548
5.696,-237.65118
5.698,-237.16768
5.7,-236.3197
5.702,-235.2354
5.704,-234.14896
5.706,-232.90497
5.708,-232.20047
5.71,-232.02484
5.712,-232.14769
5.714,-231.86143
5.716,-231.36278
5.718,-230.47697
5.72,-229.14577
5.722,-227.0885
5.724,-224.99393
5.726,-223.11711
5.728,-221.641
5.73,-220.30092
5.732,-219.54723
5.734,-219.24934
5.736,-219.1394
5.738,-218.56345
5.74,-217.74214
5.742,-216.58391
5.744,-215.13686
5.746,-213.25603
5.748,-211.67416
5.75,-210.62604
5.752,-210.13368
5.754,-209.64874
5.756,-209.2461
5.758,-208.51718
5.76,-207.13177
5.762,-204.66345
5.764,-201.77931
5.766,-198.93704
5.768,-196.62509
5.77,-194.87009
5.772,-194.21967
5.774,-194.47252
5.776,-195.12413
5.778,-195.21042
5.78,-194.6327
5.782,-193.10425
5.784,-190.62126
5.786,-187.12868
5.788,-183.55661
5.79,-180.43442
5.792,-178.11331
5.794,-176.34698
5.796,-175.41464
5.798,-174.9814
5.8,-174.61108
5.802,-173.58447
5.804,-172.17421
5.806,-170.44899
5.808,-168.60725
5.81,-166.54327
5.812,-164.93893
5.814,-163.96034
5.816,-163.60408
5.818,-163.35573
5.82,-163.47656
5.822,-163.79228
5.824,-164.1044
5.826,-163.84332
5.828,-163.37599
5.83,-162.75601
5.832,-162.10312
5.834,-161.18805
5.836,-160.6512
5.838,-160.63893
5.84,-161.1025
5.842,-161.39699
5.844,-161.67828
5.846,-161.75793
5.848,-161.6028
5.85,-160.97762
5.852,-160.69977
5.854,-161.18565
5.856,-162.60344
5.858,-164.33148
5.86,-166.33559
5.862,-168.07242
5.864,-169.10757
5.866,-168.89986
5.868,-168.22212
5.87,-167.74069
5.872,-168.10695
5.874,-169.26088
5.876,-171.63261
5.878,-174.91977
5.88,-178.61363
5.882,-181.80695
5.884,-184.73834
5.886,-187.57199
5.888,-190.62126
5.89,-193.72005
5.892,-197.41237
5.894,-201.6422
5.896,-206.13113
5.898,-210.0556
5.9,-213.55833
5.902,-216.57214
5.904,-219.1394
5.906,-220.89424
5.908,-222.41766
5.91,-223.93571
5.912,-225.64354
5.914,-227.22758
5.916,-229.27567
5.918,-231.92964
5.92,-235.1496
5.922,-238.19757
5.924,-241.18813
5.926,-243.88403
5.928,-246.1566
5.93,-247.56451
5.932,-248.79547
5.934,-250.23872
5.936,-252.16042
5.938,-254.10298
5.94,-256.32593
5.942,-258.59573
5.944,-260.66583
5.946,-261.9382
5.948,-262.92484
5.95,-263.91135
5.952,-265.1687
5.954,-266.37778
5.956,-267.90762
5.958,-269.5939
5.96,-271.17252
5.962,-271.9665
5.964,-272.42535
5.966,-272.8526
5.968,-273.6741
5.97,-274.80182
5.972,-276.9212
5.974,-280.00644
5.976,-283.68048
5.978,-286.85913
5.98,-289.49387
5.982,-291.3807
5.984,-292.6862
5.986,-293.42203
5.988,-294.81308
5.99,-297.50693
5.992,-301.69193
5.994,-306.45383
5.996,-311.44202
5.998,-315.64725
6.0,-318.20242
6.002,-318.20444
6.004,-316.45398
6.006,-313.79138
6.008,-311.19797
6.01,-308.89203
6.012,-307.658
6.014,-307.18863
6.016,-306.6951
6.018,-304.73935
6.02,-301.2571
6.022,-296.22678
6.024,-290.1846
6.026,-283.5579
6.028,-278.0322
6.03,-274.58188
6.032,-273.6741
6.034,-274.6614
6.036,-277.49338
6.038,-281.30875
6.04,-285.18143
6.042,-287.91837
6.044,-289.7277
6.046,-290.70074
6.048,-291.18524
6.05,-291.32166
6.052,-291.9133
6.054,-293.0794
6.056,-294.68747
6.058,-296.28442
6.06,-297.99164
6.062,-299.53314
6.064,-300.69128
6.066,-301.125
6.068,-301.3035
6.07,-301.29855
6.072,-301.19162
6.074,-300.3725
6.076,-299.90448
6.078,-300.16467
6.08,-301.19162
6.082,-301.38885
6.084,-301.25443
6.086,-300.62686
6.088,-299.69064
6.09,-297.98343
6.092,-297.16675
6.094,-297.9177
6.096,-300.19098
6.098,-302.3475
6.1,-303.78998
6.102,-303.48215
6.104,-301.19162
6.106,-297.08673
6.108,-293.2854
6.11,-291.01828
6.112,-290.1846
6.114,-288.3534
6.116,-282.97037
6.118,-270.85327
6.12,-250.15913
6.122,-220.85425
6.124,-186.4241
6.126,-151.07004
6.128,-118.57543
6.13,-90.43295
6.132,-67.224365
6.134,-47.796482
6.136,-31.520052
6.138,-19.517492
6.14,-17.14169
6.142,-31.541132
6.144,-70.04456
6.146,-136.85762
6.148,-232.33119
6.15,-350.10928
6.152,-478.3043
6.154,-601.29474
6.156,-704.67706
6.158,-776.78015
6.16,-811.51624
6.162,-808.7463
6.164,-775.2248
6.166,-720.9133
6.168,-656.9179
6.17,-592.5649
6.172,-535.3735
6.174,-488.72815
6.176,-452.78806
6.178,-425.09915
6.18,-403.55823
6.182,-385.7909
6.184,-370.23553
6.186,-355.71976
6.188,-342.816
6.19,-331.76553
6.192,-322.7053
6.194,-315.09875
6.196,-309.36948
6.198,-305.32806
6.2,-302.69257
6.202,-300.62726
6.204,-299.22946
6.206,-298.0622
6.208,-296.68875
6.21,-294.4304
6.212,-291.65787
6.214,-288.74277
6.216,-286.18207
6.218,-284.0626
6.22,-282.86414
6.222,-282.64566
6.224,-283.18015
6.226,-283.6639
6.228,-283.90106
6.23,-283.60492
6.232,-282.67984
6.234,-280.6417
6.236,-278.54245
6.238,-276.65668
6.24,-275.17505
6.242,-273.44128
6.244,-272.67105
6.246,-272.57104
6.248,-272.67346
6.25,-271.94934
6.252,-271.30786
6.254,-270.72662
6.256,-270.17188
6.258,-269.0739
6.26,-268.18634
6.262,-267.43738
6.264,-266.66965
6.266,-265.26834
6.268,-263.8912
6.27,-262.64914
6.272,-261.66647
6.274,-260.60956
6.276,-260.14212
6.278,-260.23105
6.28,-260.66583
6.282,-260.7101
6.284,-260.6506
6.286,-260.32343
6.288,-259.6652
6.29,-258.32224
6.292,-257.02234
6.294,-255.95306
6.296,-255.16232
6.298,-254.14075
6.3,-253.24509
6.302,-252.29826
6.304,-251.15977
6.306,-249.41702
6.308,-247.76259
6.31,-246.4527
6.312,-245.65628
6.314,-244.98042
6.316,-244.79083
6.318,-244.8025
6.32,-244.65564
6.322,-243.68224
6.324,-242.33044
6.326,-240.74683
6.328,-239.15215
6.33,-237.36235
6.332,-235.99234
6.334,-234.99846
6.336,-234.14896
6.338,-232.74622
6.34,-231.06389
6.342,-229.0189
6.344,-226.64418
6.346,-223.69817
6.348,-220.91173
6.35,-218.51913
6.352,-216.63782
6.354,-214.87804
6.356,-213.6507
6.358,-212.81154
6.36,-212.13495
6.362,-210.99867
6.364,-209.76895
6.366,-208.4514
6.368,-207.13177
6.37,-205.55966
6.372,-204.41237
6.374,-203.79904
6.376,-203.62955
6.378,-203.23296
6.38,-202.8046
6.382,-202.12965
6.384,-201.12794
6.386,-199.49255
6.388,-198.01697
6.39,-197.02327
6.392,-196.62509
6.394,-196.22928
6.396,-195.98465
6.398,-195.52939
6.4,-194.62381
6.402,-192.87416
6.404,-191.17567
6.406,-190.11125
6.408,-190.12094
6.41,-190.84547
6.412,-192.48486
6.414,-194.46954
6.416,-196.12477
6.418,-196.5098
6.42,-196.04207
6.422,-195.07022
6.424,-194.12349
6.426,-193.2357
6.428,-193.19566
6.43,-194.06155
6.432,-195.62445
6.434,-197.10497
6.436,-198.73186
6.438,-200.41634
6.44,-202.12859
6.442,-203.38623
6.444,-204.67975
6.446,-206.07431
6.448,-207.63208
6.45,-208.97699
6.452,-210.74745
6.454,-213.12782
6.456,-216.1375
6.458,-219.11093
6.46,-222.20374
6.462,-225.1204
6.464,-227.64482
6.466,-229.28036
6.468,-230.73283
6.47,-232.41512
6.472,-234.64928
6.474,-237.03589
6.476,-239.88388
6.478,-242.88795
6.48,-245.65628
6.482,-247.39946
6.484,-248.5463
6.486,-249.35046
6.488,-250.15913
6.49,-250.77003
6.492,-251.82126
6.494,-253.34288
6.496,-255.16232
6.498,-256.50433
6.5,-257.66577
6.502,-258.6708
6.504,-259.6652
6.506,-260.36356
6.508,-261.48654
6.51,-263.24823
6.512,-265.669
6.514,-268.08063
6.516,-270.6964
6.518,-273.2937
6.52,-275.67538
6.522,-277.2508
6.524,-278.5115
6.526,-279.6096
6.528,-280.67856
6.53,-281.3121
6.532,-282.01688
6.534,-282.81836
6.536,-283.68048
6.538,-284.06335
6.54,-284.5044
6.542,-285.1614
6.544,-286.18207
6.546,-287.14853
6.548,-288.60297
6.55,-290.5089
6.552,-292.6862
6.554,-294.37018
6.556,-295.91144
6.558,-297.31342
6.56,-298.69
6.562,-299.7089
6.564,-301.14563
6.566,-303.1684
6.568,-305.69446
6.57,-307.86523
6.572,-309.80017
6.574,-311.14777
6.576,-311.6983
6.578,-310.9518
6.58,-309.76608
6.582,-308.58405
6.584,-307.69574
6.586,-306.56262
6.588,-305.4679
6.59,-303.99103
6.592,-301.69193
6.594,-297.81845
6.596,-293.15396
6.598,-288.33905
6.6,-284.1808
6.602,-280.8771
6.604,-279.50897
6.606,-280.2138
6.608,-282.67984
6.61,-285.77292
6.612,-289.35522
6.614,-292.81577
6.616,-295.6881
6.618,-297.33383
6.62,-298.24954
6.622,-298.61002
6.624,-298.69
6.626,-298.6092
6.628,-299.06262
6.63,-300.13632
6.632,-301.69193
6.634,-303.21957
6.636,-304.842
6.638,-306.24738
6.64,-307.19543
6.642,-307.0782
6.644,-306.7228
6.646,-306.5045
6.648,-306.6951
6.65,-306.23843
6.652,-306.17282
6.654,-306.67374
6.656,-307.69574
6.658,-307.74203
6.66,-307.4674
6.662,-306.87106
6.664,-306.1948
6.666,-305.0312
6.668,-304.78018
6.67,-305.89587
6.672,-308.19608
6.674,-310.08453
6.676,-311.0107
6.678,-309.98798
6.68,-306.6951
6.682,-301.00006
6.684,-294.43286
6.686,-287.45398
6.688,-279.1776
6.69,-266.662
6.692,-247.53925
6.694,-219.75912
6.696,-183.6168
6.698,-141.85567
6.7,-100.77126
6.702,-66.529526
6.704,-43.52769
6.706,-32.56821
6.708,-33.020924
6.71,-42.94287
6.712,-62.039467
6.714,-92.65251
6.716,-141.04463
6.718,-213.00319
6.72,-310.69766
6.722,-429.18832
6.724,-557.552
6.726,-679.33154
6.728,-777.4946
6.73,-838.7878
6.732,-858.90027
6.734,-841.3612
6.736,-796.0064
6.738,-734.7532
6.74,-669.62494
6.742,-608.5538
6.744,-555.3533
6.746,-510.1529
6.748,-472.73062
6.75,-442.03366
6.752,-417.26544
6.754,-397.26715
6.756,-381.91324
6.758,-370.15833
6.76,-360.7295
6.762,-352.00555
6.764,-344.07043
6.766,-337.01398
6.768,-331.2107
6.77,-326.45654
6.772,-323.32022
6.774,-321.4447
6.776,-320.2037
6.778,-318.5412
6.78,-316.58868
6.782,-314.40082
6.784,-312.1986
6.786,-309.84525
6.788,-307.7921
6.79,-306.22076
6.792,-305.19415
6.794,-304.2745
6.796,-303.6193
6.798,-303.13803
6.8,-302.69257
6.802,-301.60864
6.804,-300.3794
6.806,-299.03085
6.808,-297.6894
6.81,-295.81323
6.812,-294.82086
6.814,-294.70044
6.816,-295.18777
6.818,-295.17783
6.82,-295.59152
6.822,-296.05792
6.824,-296.18842
6.826,-295.1417
6.828,-293.87112
6.83,-292.52045
6.832,-291.18524
6.834,-289.3649
6.836,-287.80185
6.838,-286.44772
6.84,-285.18143
6.842,-283.4063
6.844,-281.82346
6.846,-280.55585
6.848,-279.67792
6.85,-278.70618
6.852,-278.17242
6.854,-277.91406
6.856,-277.67664
6.858,-276.76187
6.86,-275.6717
6.862,-274.4499
6.864,-273.17377
6.866,-271.47168
6.868,-269.98923
6.87,-268.7467
6.872,-267.6703
6.874,-266.21957
6.876,-264.9146
6.878,-263.7472
6.88,-262.66708
6.882,-261.1643
6.884,-259.78256
6.886,-258.58084
6.888,-257.6639
6.89,-256.75763
6.892,-256.5775
6.894,-257.14194
6.896,-258.16425
6.898,-258.66946
6.9,-258.61847
6.902,-257.62253
6.904,-255.66264
6.906,-252.76096
6.908,-250.26576
6.91,-248.95908
6.912,-249.15851
6.914,-250.09875
6.916,-251.43571
6.918,-252.07915
6.92,-251.15977
6.922,-248.02986
6.924,-243.77379
6.926,-239.464
6.928,-236.15022
6.93,-233.98293
6.932,-233.3778
6.934,-233.60957
6.936,-233.64864
6.938,-232.23831
6.94,-229.6696
6.942,-226.36859
6.944,-223.14195
6.946,-220.3849
6.948,-219.13892
6.95,-219.40433
6.952,-220.64037
6.954,-221.60101
6.956,-222.09341
6.958,-221.76144
6.96,-220.64037
6.962,-218.65865
6.964,-216.89299
6.966,-215.83185
6.968,-215.63718
6.97,-215.66295
6.972,-216.01819
6.974,-216.27885
6.976,-216.1375
6.978,-215.08821
6.98,-213.90788
6.982,-213.00098
6.984,-212.63527
6.986,-212.3314
6.988,-212.36885
6.99,-212.40349
6.992,-212.13495
6.994,-211.04048
6.996,-209.93388
6.998,-209.32982
7.0,-209.63336
7.002,-210.45117
7.004,-212.05013
7.006,-213.95395
7.008,-215.63718
7.01,-216.32167
7.012,-216.60345
7.014,-216.89937
7.016,-217.63846
7.018,-218.55115
7.02,-220.06485
7.022,-221.8893
7.024,-223.64227
7.026,-224.61499
7.028,-225.41139
7.03,-226.44527
7.032,-228.14514
7.034,-230.23486
7.036,-233.1211
7.038,-236.44385
7.04,-239.65245
7.042,-241.75832
7.044,-243.0947
7.046,-243.90396
7.048,-244.65564
7.05,-245.35207
7.052,-246.88187
7.054,-249.39189
7.056,-252.66074
7.058,-255.68575
7.06,-258.45966
7.062,-260.65738
7.064,-262.16678
7.066,-262.59073
7.068,-262.79034
7.07,-263.2198
7.072,-264.16806
7.074,-265.1405
7.076,-266.46323
7.078,-267.89212
7.08,-269.17123
7.082,-269.65747
7.084,-269.954
7.086,-270.36847
7.088,-271.17252
7.09,-271.9776
7.092,-273.20068
7.094,-274.6722
7.096,-276.1757
7.098,-277.11285
7.1,-278.08
7.102,-279.3608
7.104,-281.17886
7.106,-283.05817
7.108,-285.35162
7.11,-287.8168
7.112,-290.1846
7.114,-291.79608
7.116,-293.25766
7.118,-294.8292
7.12,-296.68875
7.122,-298.28635
7.124,-299.99478
7.126,-301.6539
7.128,-303.19287
7.13,-304.22202
7.132,-305.66513
7.134,-307.95105
7.136,-311.19797
7.138,-314.5187
7.14,-317.76987
7.142,-320.1855
7.144,-321.20435
7.146,-320.2127
7.148,-318.31082
7.15,-316.39224
7.152,-315.20053
7.154,-314.4085
7.156,-314.2087
7.158,-313.78625
7.16,-312.1986
7.162,-308.292
7.164,-302.76837
7.166,-296.4896
7.168,-290.68494
7.17,-285.97443
7.172,-283.7231
7.174,-284.11642
7.176,-286.68237
7.178,-290.00656
7.18,-293.75656
7.182,-297.27094
7.184,-300.19098
7.186,-302.00848
7.188,-303.44986
7.19,-304.7846
7.192,-306.1948
7.194,-307.45337
7.196,-308.93445
7.198,-310.43118
7.2,-311.6983
7.202,-312.38867
7.204,-312.91766
7.206,-313.33646
7.208,-313.69955
7.21,-313.72778
7.212,-313.9898
7.214,-314.5018
7.216,-315.20053
7.218,-315.1382
7.22,-315.33026
7.222,-316.14197
7.224,-317.70212
7.226,-318.51544
7.228,-319.19308
7.23,-319.56845
7.232,-319.70337
7.234,-318.938
7.236,-318.74576
7.238,-319.68634
7.24,-321.70465
7.242,-323.21808
7.244,-323.78546
7.246,-322.50168
7.248,-319.20306
7.25,-313.9938
7.252,-308.85422
7.254,-304.7407
7.256,-301.19162
7.258,-295.39307
7.26,-284.6935
7.262,-266.15955
7.264,-238.65182
7.266,-203.14091
7.268,-164.27689
7.27,-127.07876
7.272,-95.56079
7.274,-70.820496
7.276,-52.871468
7.278,-40.213314
7.28,-32.520687
7.282,-31.820364
7.284,-44.593525
7.286,-78.32327
7.288,-139.08849
7.29,-227.93324
7.292,-340.83243
7.294,-467.03738
7.296,-591.8765
7.298,-699.7098
7.3,-779.2596
7.302,-824.1336
7.304,-834.0306
7.306,-813.2571
7.308,-770.60614
7.31,-715.3368
7.312,-655.9173
7.314,-598.3554
7.316,-547.5538
7.318,-505.5197
7.32,-472.30045
7.322,-446.0385
7.324,-425.4548
7.326,-408.66904
7.328,-394.2508
7.33,-380.9264
7.332,-369.287
7.334,-359.65134
7.336,-352.22406
7.338,-346.31616
7.34,-342.03674
7.342,-338.71854
7.344,-335.71356
7.346,-332.14914
7.348,-328.57236
7.35,-325.3144
7.352,-322.7053
7.354,-320.48444
7.356,-318.93454
7.358,-317.91412
7.36,-317.20178
7.362,-316.232
7.364,-315.21283
7.366,-314.3131
7.368,-313.69955
7.37,-312.9799
7.372,-312.42203
7.374,-311.88007
7.376,-311.19797
7.378,-309.63138
7.38,-308.218
7.382,-307.05972
7.384,-306.1948
7.386,-304.80823
7.388,-304.07907
7.39,-303.68414
7.392,-303.19287
7.394,-301.66995
7.396,-300.2257
7.398,-299.0364
7.4,-298.1897
7.402,-297.06506
7.404,-296.33853
7.406,-295.79153
7.408,-295.18777
7.41,-293.9087
7.412,-292.7897
7.414,-292.03387
7.416,-291.68555
7.418,-291.0642
7.42,-290.4843
7.422,-289.59842
7.424,-288.18332
7.426,-285.83585
7.428,-283.58182
7.43,-281.93658
7.432,-281.17886
7.434,-280.71927
7.436,-280.65936
7.438,-280.3343
7.44,-279.1776
7.442,-276.58765
7.444,-273.5552
7.446,-270.84634
7.448,-269.17123
7.45,-268.4205
7.452,-268.9752
7.454,-270.18335
7.456,-271.17252
7.458,-270.81842
7.46,-269.4745
7.462,-267.4172
7.464,-265.1687
7.466,-262.81815
7.468,-261.23883
7.47,-260.44354
7.472,-260.1655
7.474,-259.64102
7.476,-259.1885
7.478,-258.7156
7.48,-258.16425
7.482,-257.04483
7.484,-255.80989
7.486,-254.36871
7.488,-252.66074
7.49,-250.3461
7.492,-248.18732
7.494,-246.43442
7.496,-245.15596
7.498,-243.76517
7.5,-242.44926
7.502,-240.83026
7.504,-238.65182
7.506,-235.54521
7.508,-232.42722
7.51,-229.83601
7.512,-228.14514
7.514,-226.96016
7.516,-226.46538
7.518,-226.07146
7.52,-225.14323
7.522,-222.87317
7.524,-219.86057
7.526,-216.57884
7.528,-213.63591
7.53,-211.09877
7.532,-209.71864
7.534,-209.37816
7.536,-209.63336
7.538,-209.4837
7.54,-209.06136
7.542,-208.24521
7.544,-207.13177
7.546,-205.5071
7.548,-204.1938
7.55,-203.40456
7.552,-203.12923
7.554,-202.7115
7.556,-202.43358
7.558,-202.11107
7.56,-201.62827
7.562,-200.51965
7.564,-199.487
7.566,-198.79443
7.568,-198.62636
7.57,-198.55167
7.572,-199.04045
7.574,-199.96751
7.576,-201.12794
7.578,-201.85388
7.58,-202.61324
7.582,-203.50151
7.584,-204.63017
7.586,-205.58371
7.588,-206.91751
7.59,-208.63348
7.592,-210.634
7.594,-212.30101
7.596,-214.07559
7.598,-216.00423
7.6,-218.13878
7.602,-220.01927
7.604,-222.20016
7.606,-224.74684
7.608,-227.64482
7.61,-230.31914
7.612,-233.17998
7.614,-236.16756
7.616,-239.15215
7.618,-241.45671
7.62,-243.4557
7.622,-245.16223
7.624,-246.6569
7.626,-247.58337
7.628,-248.69861
7.63,-250.32605
7.632,-252.66074
7.634,-255.17592
7.636,-258.2071
7.638,-261.49664
7.64,-264.66837
7.642,-266.82858
7.644,-268.27673
7.646,-269.12082
7.648,-269.67154
7.65,-269.84595
7.652,-270.58008
7.654,-272.19934
7.656,-274.67474
7.658,-277.11517
7.66,-279.4455
7.662,-281.2074
7.664,-282.1795
7.666,-282.01486
7.668,-281.70447
7.67,-281.93384
7.672,-283.18015
7.674,-285.00284
7.676,-287.5562
7.678,-290.30154
7.68,-292.6862
7.682,-293.89926
7.684,-294.56757
7.686,-295.16608
7.688,-296.18842
7.69,-297.38336
7.692,-299.26678
7.694,-301.6376
7.696,-304.1935
7.698,-306.21524
7.7,-308.30524
7.702,-310.73718
7.704,-313.69955
7.706,-316.5769
7.708,-319.5537
7.71,-322.1097
7.712,-323.70593
7.714,-323.50677
7.716,-322.21814
7.718,-320.39902
7.72,-318.70276
7.722,-317.0572
7.724,-316.19556
7.726,-315.91907
7.728,-315.70084
7.73,-314.38882
7.732,-312.20038
7.734,-309.18042
7.736,-305.69446
7.738,-301.7648
7.74,-298.60382
7.742,-296.70148
7.744,-296.18842
7.746,-296.32294
7.748,-297.28204
7.75,-298.67038
7.752,-300.19098
7.754,-301.33337
7.756,-302.71942
7.758,-304.50308
7.76,-306.6951
7.762,-308.8729
7.764,-311.03214
7.766,-312.61926
7.768,-313.19925
7.77,-312.5948
7.772,-311.49222
7.774,-310.37753
7.776,-309.69702
7.778,-309.44067
7.78,-310.06915
7.782,-311.2985
7.784,-312.6989
7.786,-313.04984
7.788,-313.33832
7.79,-314.09665
7.792,-315.70084
7.794,-316.71002
7.796,-317.82275
7.798,-318.7272
7.8,-319.20306
7.802,-318.12033
7.804,-316.92242
7.806,-316.33505
7.808,-316.70148
7.81,-316.817
7.812,-316.66684
7.814,-315.4423
7.816,-312.6989
7.818,-307.878
7.82,-302.28046
7.822,-296.27942
7.824,-289.18396
7.826,-278.37335
7.828,-261.79132
7.83,-237.22473
7.832,-204.12985
7.834,-163.74016
7.836,-120.55973
7.838,-79.15669
7.84,-43.02737
7.842,-12.981426
7.844,10.796937
7.846,29.081804
7.848,41.0261
7.85,43.264664
7.852,28.228502
7.854,-12.084578
7.856,-83.553154
7.858,-186.43263
7.86,-315.62137
7.862,-459.47168
7.864,-602.88354
7.866,-730.28253
7.868,-830.5644
7.87,-897.1243
7.872,-928.59076
7.874,-927.2448
7.876,-899.24646
7.878,-851.44196
7.88,-791.00323
7.882,-724.3754
7.884,-658.6171
7.886,-598.99115
7.888,-548.8492
7.89,-508.67422
7.892,-477.92822
7.894,-453.97766
7.896,-433.77594
7.898,-414.47495
7.9,-395.8231
7.902,-378.34222
7.904,-363.23108
7.906,-351.02322
7.908,-342.6244
7.91,-337.44705
7.912,-334.21262
7.914,-331.06393
7.916,-327.55545
7.918,-323.49142
7.92,-319.20306
7.922,-314.86697
7.924,-311.2562
7.926,-308.70163
7.928,-307.19543
7.93,-306.1313
7.932,-305.3085
7.934,-304.5324
7.936,-303.6932
7.938,-302.33133
7.94,-300.7568
7.942,-299.1315
7.944,-297.6894
7.946,-296.01007
7.948,-295.2622
7.95,-295.41882
7.952,-296.18842
7.954,-296.3029
7.956,-296.69556
7.958,-296.8123
7.96,-296.18842
7.962,-293.98355
7.964,-291.74615
7.966,-289.89456
7.968,-288.68365
7.97,-287.55533
7.972,-287.26715
7.974,-287.4655
7.976,-287.683
7.978,-287.0371
7.98,-286.21634
7.982,-285.37018
7.984,-284.6811
7.986,-283.77872
7.988,-283.3377
7.99,-283.22977
7.992,-283.18015
7.994,-282.4444
7.996,-281.5097
7.998,-280.39944
8.0,-279.1776
8.002,-277.45
8.004,-275.86765
8.006,-274.45657
8.008,-273.17377
8.01,-271.53275
8.012,-270.13345
8.014,-269.02722
8.016,-268.1706
8.018,-266.98178
8.02,-265.84628
8.022,-264.60928
8.024,-263.16742
8.026,-261.12253
8.028,-259.223
8.03,-257.70737
8.032,-256.66327
8.034,-255.54753
8.036,-254.63173
8.038,-253.59126
8.04,-252.16042
8.042,-249.86774
8.044,-247.51013
8.046,-245.49902
8.048,-244.15532
8.05,-243.13448
8.052,-242.80502
8.054,-242.79659
8.056,-242.65437
8.058,-241.63199
8.06,-240.2276
8.062,-238.64758
8.064,-237.15086
8.066,-235.49658
8.068,-234.27003
8.07,-233.38524
8.072,-232.648
8.074,-231.46292
8.076,-230.351
8.078,-229.40007
8.08,-228.64546
8.082,-227.57329
8.084,-226.56567
8.086,-225.46051
8.088,-224.1426
8.09,-222.21404
8.092,-220.46391
8.094,-219.22224
8.096,-218.63908
8.098,-218.12238
8.1,-217.82532
8.102,-217.28845
8.104,-216.1375
8.106,-213.85376
8.108,-211.32776
8.11,-209.2164
8.112,-208.1324
8.114,-207.93085
8.116,-209.08124
8.118,-211.1903
8.12,-213.63591
8.122,-215.34053
8.124,-216.49527
8.126,-217.0634
8.128,-217.13814
8.13,-216.35234
8.132,-215.33235
8.134,-214.21022
8.136,-213.13559
8.138,-211.8703
8.14,-211.31335
8.142,-211.85674
8.144,-213.63591
8.146,-215.92885
8.148,-218.73929
8.15,-221.4747
8.152,-223.64227
8.154,-224.58994
8.156,-225.10721
8.158,-225.78218
8.16,-227.1445
8.162,-228.91788
8.164,-231.46585
8.166,-234.38397
8.168,-237.15086
8.17,-238.89307
8.172,-240.09006
8.174,-241.05125
8.176,-242.15405
8.178,-243.15118
8.18,-244.61604
8.182,-246.49664
8.184,-248.65819
8.186,-250.5304
8.188,-252.7471
8.19,-255.57928
8.192,-259.16486
8.194,-262.83658
8.196,-266.67224
8.198,-270.12955
8.2,-272.67346
8.202,-273.48807
8.204,-273.25266
8.206,-272.57104
8.208,-272.17316
8.21,-272.11508
8.212,-273.19608
8.214,-275.35678
8.216,-278.17697
8.218,-280.5437
8.22,-282.50104
8.222,-283.869
8.224,-284.6811
8.226,-284.61093
8.228,-284.459
8.23,-284.57083
8.232,-285.18143
8.234,-285.89014
8.236,-287.20596
8.238,-289.0513
8.24,-291.18524
8.242,-292.75604
8.244,-293.98462
8.246,-294.76932
8.248,-295.18777
8.25,-294.98825
8.252,-295.1117
8.254,-295.96454
8.256,-297.6894
8.258,-299.57825
8.26,-301.81793
8.262,-304.08493
8.264,-306.1948
8.266,-307.68387
8.268,-309.44562
8.27,-311.90158
8.272,-315.20053
8.274,-318.5184
8.276,-321.81415
8.278,-324.3933
8.28,-325.7072
8.282,-325.07794
8.284,-323.54617
8.286,-321.97797
8.288,-321.20435
8.29,-321.10474
8.292,-322.14468
8.294,-323.67966
8.296,-324.70657
8.298,-323.71094
8.3,-320.81726
8.302,-316.234
8.304,-310.69766
8.306,-304.66595
8.308,-299.76447
8.31,-296.71655
8.312,-295.6881
8.314,-295.79166
8.316,-296.9845
8.318,-298.62042
8.32,-300.19098
8.322,-301.0045
8.324,-301.7372
8.326,-302.70728
8.328,-304.1935
8.33,-305.99066
8.332,-308.3934
8.334,-310.97083
8.336,-313.19925
8.338,-314.4877
8.34,-315.20703
8.342,-315.52197
8.344,-315.70084
8.346,-315.67758
8.348,-316.11758
8.35,-317.01248
8.352,-318.20242
8.354,-318.63147
8.356,-319.27145
8.358,-320.44833
8.36,-322.205
8.362,-322.8159
8.364,-322.79877
8.366,-321.99448
8.368,-320.704
8.37,-318.6525
8.372,-317.88153
8.374,-319.28595
8.376,-322.7053
8.378,-325.91995
8.38,-327.63025
8.382,-326.17786
8.384,-321.20435
8.386,-313.35568
8.388,-305.7828
8.39,-300.65256
8.392,-298.1897
8.394,-295.37515
8.396,-288.5225
8.398,-273.32736
8.4,-247.65755
8.402,-212.41415
8.404,-173.12181
8.406,-136.15555
8.408,-106.567795
8.41,-85.49246
8.412,-71.74474
8.414,-61.834145
8.416,-53.534058
8.418,-48.00158
8.42,-52.419212
8.422,-76.44209
8.424,-129.08212
8.426,-214.08215
8.428,-328.99063
8.43,-463.09985
8.432,-600.38196
8.434,-722.993
8.436,-817.2474
8.438,-874.6863
8.44,-893.5685
8.442,-877.45404
8.444,-835.002
8.446,-775.8817
8.448,-709.45135
8.45,-642.9959
8.452,-582.84845
8.454,-532.31915
8.456,-492.3132
8.458,-461.19736
8.46,-437.2758
8.462,-417.87225
8.464,-400.75494
8.466,-384.1997
8.468,-368.821
8.47,-355.38538
8.472,-344.7193
8.474,-336.65298
8.476,-331.4703
8.478,-328.33633
8.48,-326.20752
8.482,-323.78424
8.484,-321.31473
8.486,-319.00537
8.488,-317.20178
8.49,-315.7009
8.492,-314.79514
8.494,-314.24985
8.496,-313.69955
8.498,-312.469
8.5,-310.7748
8.502,-308.8939
8.504,-307.19543
8.506,-305.5271
8.508,-304.31036
8.51,-303.4471
8.512,-302.69257
8.514,-301.125
8.516,-299.59348
8.518,-298.08884
8.52,-296.68875
8.522,-294.73718
8.524,-293.73672
8.526,-293.53354
8.528,-293.68683
8.53,-293.02988
8.532,-292.3634
8.534,-291.46573
8.536,-290.1846
8.538,-287.95422
8.54,-285.8056
8.542,-283.9924
8.544,-282.67984
8.546,-281.4252
8.548,-280.93726
8.55,-281.1072
8.552,-281.6792
8.554,-281.86484
8.556,-282.04672
8.558,-282.04272
8.56,-281.6792
8.562,-280.36496
8.564,-278.68704
8.566,-276.74112
8.568,-274.67474
8.57,-272.24222
8.572,-270.27353
8.574,-268.93494
8.576,-268.1706
8.578,-267.2782
8.58,-266.5257
8.582,-265.6802
8.584,-264.66837
8.586,-263.2104
8.588,-262.23343
8.59,-262.0558
8.592,-262.66708
8.594,-263.2083
8.596,-263.5586
8.598,-263.0231
8.6,-261.16614
8.602,-257.62848
8.604,-253.60806
8.606,-250.0337
8.608,-247.65755
8.61,-246.2982
8.612,-246.1923
8.614,-246.60014
8.616,-246.6569
8.618,-245.35341
8.62,-243.22644
8.622,-240.77208
8.624,-238.65182
8.626,-236.93068
8.628,-236.27335
8.63,-236.38365
8.632,-236.65054
8.634,-236.02821
8.636,-234.73476
8.638,-232.83751
8.64,-230.64673
8.642,-228.12247
8.644,-226.13155
8.646,-224.83014
8.648,-224.1426
8.65,-223.4422
8.652,-223.09715
8.654,-223.0241
8.656,-223.14195
8.658,-222.91904
8.66,-222.80223
8.662,-222.73315
8.664,-222.64163
8.666,-222.0628
8.668,-221.61028
8.67,-221.44182
8.672,-221.641
8.674,-221.72226
8.676,-222.1061
8.678,-222.64456
8.68,-223.14195
8.682,-222.98131
8.684,-222.67947
8.686,-222.35698
8.688,-222.14131
8.69,-221.66035
8.692,-221.49626
8.694,-221.68076
8.696,-222.14131
8.698,-222.27518
8.7,-222.50737
8.702,-222.81029
8.704,-223.14195
8.706,-222.97748
8.708,-222.81789
8.71,-222.70297
8.712,-222.64163
8.714,-222.15836
8.716,-221.82687
8.718,-221.78506
8.72,-222.14131
8.722,-222.47375
8.724,-223.33746
8.726,-224.75858
8.728,-226.64418
8.73,-228.32521
8.732,-230.11974
8.734,-231.92055
8.736,-233.64864
8.738,-234.80223
8.74,-235.9794
8.742,-237.3792
8.744,-239.15215
8.746,-240.8581
8.748,-242.98676
8.75,-245.47704
8.752,-248.15787
8.754,-250.30438
8.756,-252.27397
8.758,-254.04985
8.76,-255.66264
8.762,-256.66327
8.764,-257.71088
8.766,-259.00598
8.768,-260.66583
8.77,-262.16318
8.772,-263.9762
8.774,-266.03622
8.776,-268.1706
8.778,-269.612
8.78,-270.73483
8.782,-271.55273
8.784,-272.17316
8.786,-272.24863
8.788,-272.59326
8.79,-273.522
8.792,-275.17505
8.794,-276.9301
8.796,-279.05826
8.798,-281.25513
8.8,-283.18015
8.802,-284.0703
8.804,-284.3892
8.806,-284.33234
8.808,-284.1808
8.81,-283.70676
8.812,-283.68787
8.814,-284.3325
8.816,-285.68173
8.818,-287.1049
8.82,-288.99557
8.822,-291.24048
8.824,-293.68683
8.826,-295.63965
8.828,-297.57626
8.83,-299.5614
8.832,-301.69193
8.834,-303.53592
8.836,-305.8141
8.838,-308.69632
8.84,-312.1986
8.842,-315.60202
8.844,-319.20068
8.846,-322.68637
8.848,-325.7072
8.85,-327.42322
8.852,-328.34598
8.854,-328.6719
8.856,-328.7091
8.858,-328.21716
8.86,-328.04123
8.862,-328.278
8.864,-328.7091
8.866,-328.29828
8.868,-327.11313
8.87,-324.79025
8.872,-321.20435
8.874,-316.0171
8.876,-310.44882
8.878,-305.39398
8.88,-301.69193
8.882,-299.36328
8.884,-299.198
8.886,-301.00082
8.888,-304.1935
8.89,-307.5252
8.892,-310.88553
8.894,-313.84106
8.896,-316.20114
8.898,-317.64304
8.9,-318.84784
8.902,-320.006
8.904,-321.20435
8.906,-322.21323
8.908,-323.35596
8.91,-324.42883
8.912,-325.20688
8.914,-325.29456
8.916,-325.22183
8.918,-325.1429
8.92,-325.20688
8.922,-324.86743
8.924,-324.97028
8.926,-325.6273
8.928,-326.70782
8.93,-326.62668
8.932,-326.26657
8.934,-325.8592
8.936,-325.7072
8.938,-324.7894
8.94,-324.29166
8.942,-324.426
8.944,-325.20688
8.946,-325.55618
8.948,-326.05078
8.95,-326.4205
8.952,-326.20752
8.954,-324.0961
8.956,-320.33533
8.958,-314.79565
8.96,-307.69574
8.962,-298.8742
8.964,-289.3796
8.966,-279.03674
8.968,-266.66965
8.97,-249.70596
8.972,-226.82477
8.974,-197.22519
8.976,-162.10312
8.978,-124.294
8.98,-89.34856
8.982,-62.164577
8.984,-46.02928
8.986,-41.380848
8.988,-48.211437
8.99,-65.80994
8.992,-95.06047
8.994,-138.68954
8.996,-202.15692
8.998,-289.29092
9.0,-399.7543
9.002,-526.3562
9.004,-656.8442
9.006,-774.6116
9.008,-863.5494
9.01,-912.00275
9.012,-917.49255
9.014,-885.2429
9.016,-826.5258
9.018,-754.3946
9.02,-681.6891
9.022,-616.66644
9.024,-562.8581
9.026,-519.4703
9.028,-484.87625
9.03,-456.47525
9.032,-432.275
9.034,-410.66125
9.036,-391.90573
9.038,-375.96167
9.04,-362.73074
9.042,-351.47958
9.044,-342.5703
9.046,-335.75815
9.048,-330.7104
9.05,-326.52307
9.052,-323.30078
9.054,-320.64435
9.056,-318.20242
9.058,-315.33084
9.06,-312.43076
9.062,-309.66922
9.064,-307.19543
9.066,-304.70764
9.068,-302.4552
9.07,-300.46075
9.072,-298.69
9.074,-296.65887
9.076,-294.60764
9.078,-292.57898
9.08,-290.68494
9.082,-288.55487
9.084,-287.14554
9.086,-286.67285
9.088,-287.1827
9.09,-287.70535
9.092,-289.1455
9.094,-290.7608
9.096,-291.68555
9.098,-290.5575
9.1,-288.55365
9.102,-285.93594
9.104,-283.18015
9.106,-280.27698
9.108,-278.70743
9.11,-278.64023
9.112,-279.67792
9.114,-280.46814
9.116,-280.86115
9.118,-280.1749
9.12,-278.17697
9.122,-274.73428
9.124,-271.36313
9.126,-269.0022
9.128,-268.1706
9.13,-268.25528
9.132,-269.16068
9.134,-269.912
9.136,-269.67154
9.138,-267.69193
9.14,-265.01093
9.142,-262.54642
9.144,-261.16614
9.146,-260.80225
9.148,-261.80478
9.15,-263.4167
9.152,-264.66837
9.154,-264.39325
9.156,-263.044
9.158,-261.07516
9.16,-259.16486
9.162,-257.40656
9.164,-256.57373
9.166,-256.4839
9.168,-256.66327
9.17,-256.1911
9.172,-255.43275
9.174,-254.51097
9.176,-253.66136
9.178,-252.599
9.18,-251.88739
9.182,-251.34532
9.184,-250.65945
9.186,-249.14159
9.188,-247.35724
9.19,-245.58151
9.192,-244.15532
9.194,-242.883
9.196,-242.36726
9.198,-242.42879
9.2,-242.65437
9.202,-242.14447
9.204,-241.16437
9.206,-239.74303
9.208,-238.1515
9.21,-236.38809
9.212,-235.42822
9.214,-235.54813
9.216,-236.65054
9.218,-237.85701
9.22,-239.08224
9.222,-239.78465
9.224,-239.65245
9.226,-238.32748
9.228,-236.79518
9.23,-235.72815
9.232,-235.64992
9.234,-236.28012
9.236,-237.88875
9.238,-239.9143
9.24,-241.65373
9.242,-242.11871
9.244,-241.66171
9.246,-240.52663
9.248,-239.15215
9.25,-237.53185
9.252,-236.4795
9.254,-236.07568
9.256,-236.15022
9.258,-235.97626
9.26,-235.86302
9.262,-235.75296
9.264,-235.64992
9.266,-235.11731
9.268,-234.69823
9.27,-234.40079
9.272,-234.14896
9.274,-233.38159
9.276,-232.58298
9.278,-231.81972
9.28,-231.14705
9.282,-230.12216
9.284,-229.27292
9.286,-228.6233
9.288,-228.14514
9.29,-227.33643
9.292,-226.74359
9.294,-226.48512
9.296,-226.64418
9.298,-226.77144
9.3,-227.3594
9.302,-228.36436
9.304,-229.64609
9.306,-230.53836
9.308,-231.42828
9.31,-232.29466
9.312,-233.14832
9.314,-233.54378
9.316,-234.09966
9.318,-234.9539
9.32,-236.15022
9.322,-237.13763
9.324,-238.3496
9.326,-239.7175
9.328,-241.15341
9.33,-242.10403
9.332,-243.15128
9.334,-244.45973
9.336,-246.1566
9.338,-247.77272
9.34,-249.80647
9.342,-252.17256
9.344,-254.662
9.346,-256.4961
9.348,-258.02396
9.35,-259.2261
9.352,-260.1655
9.354,-260.4519
9.356,-260.82556
9.358,-261.5274
9.36,-262.66708
9.362,-263.6638
9.364,-264.9267
9.366,-266.32236
9.368,-267.6703
9.37,-268.2868
9.372,-268.69214
9.374,-269.07083
9.376,-269.67154
9.378,-270.21912
9.38,-271.45065
9.382,-273.48135
9.384,-276.1757
9.386,-278.6574
9.388,-281.01657
9.39,-282.9212
9.392,-284.1808
9.394,-284.33453
9.396,-284.18295
9.398,-284.17523
9.4,-284.6811
9.402,-285.38034
9.404,-286.79236
9.406,-288.8018
9.408,-291.18524
9.41,-293.2055
9.412,-295.29343
9.414,-297.46344
9.416,-299.69064
9.418,-301.3464
9.42,-302.84598
9.422,-304.1277
9.424,-305.19415
9.426,-305.65524
9.428,-306.39554
9.43,-307.8306
9.432,-310.19733
9.434,-312.88577
9.436,-316.0875
9.438,-319.2421
9.44,-321.70465
9.442,-322.45667
9.444,-321.958
9.446,-320.5288
9.448,-318.70276
9.45,-316.49774
9.452,-314.8975
9.454,-314.0455
9.456,-313.69955
9.458,-312.80307
9.46,-311.38596
9.462,-309.0695
9.464,-305.69446
9.466,-300.86127
9.468,-295.65274
9.47,-290.83322
9.472,-287.1827
9.474,-284.77933
9.476,-284.5728
9.478,-286.54178
9.48,-290.1846
9.482,-294.1342
9.484,-298.04553
9.486,-301.19363
9.488,-303.19287
9.49,-303.69278
9.492,-303.657
9.494,-303.6746
9.496,-304.1935
9.498,-305.15558
9.5,-306.75928
9.502,-308.46878
9.504,-309.69702
9.506,-309.93735
9.508,-309.61533
9.51,-308.95166
9.512,-308.19608
9.514,-307.07297
9.516,-306.22314
9.518,-305.62625
9.52,-305.19415
9.522,-303.86176
9.524,-302.94223
9.526,-303.0977
9.528,-304.69385
9.53,-306.28613
9.532,-308.20776
9.534,-309.81845
9.536,-310.69766
9.538,-310.0079
9.54,-309.20407
9.542,-309.14474
9.544,-310.19733
9.546,-311.17493
9.548,-311.7077
9.55,-310.7194
9.552,-307.69574
9.554,-302.3885
9.556,-296.40347
9.558,-290.40573
9.56,-283.68048
9.562,-273.2279
9.564,-256.2888
9.566,-230.10316
9.568,-194.12349
9.57,-150.37262
9.572,-104.72952
9.574,-63.35393
9.576,-31.019733
9.578,-9.16439
9.58,2.1580229
9.582,4.282226
9.584,-3.0019097
9.586,-22.53228
9.588,-61.22456
9.59,-125.79796
9.592,-219.63972
9.594,-339.1115
9.596,-474.2359
9.598,-608.69495
9.6,-724.4609
9.602,-806.1733
9.604,-846.6785
9.606,-846.6868
9.608,-814.0178
9.61,-759.9288
9.612,-697.1359
9.614,-635.22406
9.616,-579.8689
9.618,-532.5755
9.62,-493.5828
9.622,-461.48584
9.624,-434.77658
9.626,-411.78632
9.628,-392.46265
9.63,-376.40704
9.632,-363.23108
9.634,-351.96466
9.636,-342.7608
9.638,-335.16983
9.64,-328.7091
9.642,-322.44913
9.644,-316.73367
9.646,-311.5874
9.648,-307.19543
9.65,-303.3766
9.652,-300.83636
9.654,-299.67883
9.656,-299.69064
9.658,-300.02893
9.66,-300.4201
9.662,-300.53235
9.664,-300.19098
9.666,-299.00696
9.668,-297.26797
9.67,-295.23334
9.672,-293.18652
9.674,-290.8951
9.676,-289.02032
9.678,-287.653
9.68,-286.68237
9.682,-285.0771
9.684,-283.62512
9.686,-282.01105
9.688,-280.17825
9.69,-277.75476
9.692,-276.7548
9.694,-277.74158
9.696,-280.67856
9.698,-284.23434
9.7,-288.2294
9.702,-291.38055
9.704,-292.6862
9.706,-291.30063
9.708,-288.5258
9.71,-285.35928
9.712,-282.67984
9.714,-280.3514
9.716,-278.8531
9.718,-277.63864
9.72,-276.1757
9.722,-273.87564
9.724,-271.8659
9.726,-270.9542
9.728,-271.67282
9.73,-273.3977
9.732,-275.86224
9.734,-277.82303
9.736,-278.17697
9.738,-276.06705
9.74,-272.66925
9.742,-269.274
9.744,-267.16995
9.746,-266.54968
9.748,-267.78214
9.75,-269.90817
9.752,-271.67282
9.754,-271.69382
9.756,-270.41205
9.758,-268.44147
9.76,-266.66965
9.762,-265.30386
9.764,-265.06366
9.766,-265.5799
9.768,-266.1693
9.77,-265.8001
9.772,-264.87872
9.774,-263.69647
9.776,-262.66708
9.778,-261.58362
9.78,-260.9443
9.782,-260.44012
9.784,-259.6652
9.786,-257.95523
9.788,-256.05814
9.79,-254.46783
9.792,-253.66136
9.794,-253.39534
9.796,-254.02156
9.798,-255.00908
9.8,-255.66264
9.802,-255.02147
9.804,-253.52574
9.806,-251.54121
9.808,-249.65883
9.81,-248.0303
9.812,-247.5348
9.814,-248.1928
9.816,-249.65883
9.818,-250.98094
9.82,-252.19019
9.822,-252.96693
9.824,-253.16106
9.826,-252.39186
9.828,-251.33177
9.83,-250.20279
9.832,-249.15851
9.834,-247.86151
9.836,-246.86559
9.838,-246.16368
9.84,-245.65628
9.842,-244.78078
9.844,-243.97525
9.846,-243.2507
9.848,-242.65437
9.85,-241.83395
9.852,-241.40544
9.854,-241.39867
9.856,-241.65373
9.858,-241.42023
9.86,-240.88078
9.862,-239.81256
9.864,-238.1515
9.866,-235.61092
9.868,-233.08673
9.87,-231.01663
9.872,-229.64609
9.874,-228.4812
9.876,-227.75906
9.878,-227.10152
9.88,-226.14386
9.882,-224.26279
9.884,-222.09125
9.886,-219.95448
9.888,-218.13878
9.89,-216.29373
9.892,-214.83478
9.894,-213.53769
9.896,-212.13495
9.898,-210.04468
9.9,-207.96365
9.902,-206.33577
9.904,-205.63081
9.906,-205.6864
9.908,-207.11214
9.91,-209.7358
9.912,-213.13559
9.914,-216.32301
9.916,-219.42609
9.918,-222.23639
9.92,-224.64291
9.922,-226.1164
9.924,-227.20444
9.926,-228.00943
9.928,-228.64546
9.93,-228.78896
9.932,-229.2278
9.934,-230.28334
9.936,-232.14769
9.938,-234.31726
9.94,-237.11392
9.942,-240.20763
9.944,-243.15468
9.946,-245.03682
9.948,-246.1793
9.95,-246.64975
9.952,-246.6569
9.954,-245.9716
9.956,-245.41153
9.958,-245.25957
9.96,-245.65628
9.962,-246.09488
9.964,-247.08702
9.966,-248.63518
9.968,-250.65945
9.97,-252.49644
9.972,-254.53317
9.974,-256.7493
9.976,-259.16486
9.978,-261.32425
9.98,-263.81644
9.982,-266.67166
9.984,-269.67154
9.986,-271.87534
9.988,-273.2852
9.99,-273.6709
9.992,-273.17377
9.994,-271.88107
9.996,-271.11816
9.998,-271.64697
10.0,-273.6741
10.002,-276.20023
10.004,-278.7536
10.006,-280.39478
10.008,-280.67856
10.01,-279.4821
10.012,-278.44003
10.014,-278.90793
10.016,-281.6792
10.018,-286.00897
10.02,-291.2105
10.022,-295.6901
10.024,-298.1897
10.026,-297.95068
10.028,-296.483
10.03,-295.53772
10.032,-296.68875
10.034,-300.02103
10.036,-305.4077
10.038,-311.24686
10.04,-315.70084
10.042,-317.07544
10.044,-315.93628
10.046,-313.45102
10.048,-311.19797
10.05,-309.83932
10.052,-310.16486
10.054,-311.4213
10.056,-312.1986
10.058,-310.633
10.06,-306.6886
10.062,-300.8072
10.064,-294.18716
10.066,-287.77472
10.068,-283.36304
10.07,-281.5602
10.072,-282.1795
10.074,-283.9379
10.076,-286.43588
10.078,-288.86133
10.08,-290.68494
10.082,-291.27136
10.084,-291.31937
10.086,-291.18005
10.088,-291.18524
10.09,-291.25058
10.092,-291.8795
10.094,-292.93845
10.096,-294.18716
10.098,-295.23886
10.1,-296.35236
10.102,-297.3929
10.104,-298.1897
10.106,-298.37506
10.108,-298.18103
10.11,-297.453
10.112,-296.18842
10.114,-294.0058
10.116,-292.3063
10.118,-291.91296
10.12,-293.18652
10.122,-294.59207
10.124,-296.30652
10.126,-297.62976
10.128,-298.1897
10.13,-297.17776
10.132,-296.18896
10.134,-296.10226
10.136,-297.18906
10.138,-298.085
10.14,-298.33148
10.142,-296.92764
10.144,-293.68683
10.146,-288.92908
10.148,-284.99655
10.15,-283.293
10.152,-283.68048
10.154,-283.40912
10.156,-279.40625
10.158,-267.99832
10.16,-247.15723
10.162,-217.1183
10.164,-181.95792
10.166,-146.45935
10.168,-114.57288
10.17,-87.297295
10.172,-64.06678
10.174,-42.353184
10.176,-20.51305
10.178,0.4373375
10.18,14.145571
10.182,11.53547
10.184,-17.010822
10.186,-77.654076
10.188,-171.75595
10.19,-292.81146
10.192,-427.77213
10.194,-559.3146
10.196,-671.2929
10.198,-750.75464
10.2,-791.00323
10.202,-791.9469
10.204,-760.7837
10.206,-708.0726
10.208,-645.4106
10.21,-582.38293
10.212,-526.49774
10.214,-480.97437
10.216,-445.7836
10.218,-418.39017
10.22,-396.737
10.222,-378.62982
10.224,-362.73074
10.226,-348.0439
10.228,-335.16574
10.23,-324.23505
10.232,-315.20053
10.234,-307.3489
10.236,-300.99542
10.238,-295.98434
10.24,-292.18588
10.242,-288.98764
10.244,-286.69458
10.246,-285.03717
10.248,-283.68048
10.25,-281.98917
10.252,-280.27173
10.254,-278.75165
10.256,-277.67664
10.258,-276.8192
10.26,-276.31833
10.262,-276.01602
10.264,-275.67538
10.266,-274.76422
10.268,-273.45642
10.27,-271.98584
10.272,-270.67218
10.274,-269.21365
10.276,-268.42688
10.278,-268.1805
10.28,-268.1706
10.282,-267.35114
10.284,-266.70798
10.286,-266.02997
10.288,-265.1687
10.29,-263.54044
10.292,-262.41794
10.294,-261.98294
10.296,-262.16678
10.298,-262.17035
10.3,-262.3944
10.302,-262.4824
10.304,-262.16678
10.306,-260.93686
10.308,-259.6681
10.31,-258.6857
10.312,-258.16425
10.314,-257.58755
10.316,-257.28058
10.318,-256.90344
10.32,-256.16296
10.322,-254.56801
10.324,-252.92691
10.326,-251.679
10.328,-251.15977
10.33,-251.00665
10.332,-251.5163
10.334,-252.23856
10.336,-252.66074
10.338,-252.03094
10.34,-250.88225
10.342,-249.4911
10.344,-248.15787
10.346,-246.61781
10.348,-245.3402
10.35,-244.11015
10.352,-242.65437
10.354,-240.4335
10.356,-238.12126
10.358,-236.08386
10.36,-234.64928
10.362,-233.52312
10.364,-233.07167
10.366,-232.93376
10.368,-232.648
10.37,-231.46985
10.372,-229.88808
10.374,-228.16606
10.376,-226.64418
10.378,-225.16577
10.38,-224.33385
10.382,-224.06926
10.384,-224.1426
10.386,-223.90343
10.388,-223.7484
10.39,-223.67389
10.392,-223.64227
10.394,-223.11919
10.396,-222.43774
10.398,-221.46155
10.4,-220.14005
10.402,-218.2053
10.404,-216.49347
10.406,-215.40352
10.408,-215.13686
10.41,-215.17784
10.412,-215.65622
10.414,-216.10934
10.416,-216.1375
10.418,-215.20003
10.42,-214.01628
10.422,-213.03622
10.424,-212.63527
10.426,-212.51184
10.428,-212.9775
10.43,-213.6591
10.432,-214.13623
10.434,-213.75494
10.436,-213.11742
10.438,-212.61307
10.44,-212.63527
10.442,-212.95123
10.444,-213.95984
10.446,-215.3417
10.448,-216.63782
10.45,-217.05627
10.452,-217.00932
10.454,-216.7475
10.456,-216.63782
10.458,-216.5471
10.46,-217.06534
10.462,-218.06041
10.464,-219.1394
10.466,-219.3939
10.468,-218.96143
10.47,-217.80365
10.472,-216.1375
10.474,-213.94083
10.476,-212.20317
10.478,-211.37671
10.48,-211.63463
10.482,-212.39227
10.484,-213.76064
10.486,-215.31158
10.488,-216.63782
10.49,-217.06546
10.492,-217.09653
10.494,-217.0118
10.496,-217.13814
10.498,-217.28513
10.5,-218.07301
10.502,-219.55272
10.504,-221.641
10.506,-223.74478
10.508,-226.20377
10.51,-228.9084
10.512,-231.64737
10.514,-233.66556
10.516,-235.14192
10.518,-235.94649
10.52,-236.15022
10.522,-235.61826
10.524,-235.3678
10.526,-235.96263
10.528,-237.65118
10.53,-239.7532
10.532,-242.16002
10.534,-244.15776
10.536,-245.15596
10.538,-244.50262
10.54,-243.07243
10.542,-241.68166
10.544,-241.15341
10.546,-241.50089
10.548,-243.20909
10.55,-245.83763
10.552,-248.65819
10.554,-250.50407
10.556,-251.52097
10.558,-251.79929
10.56,-251.6601
10.562,-250.98091
10.564,-250.55157
10.566,-250.58582
10.568,-251.15977
10.57,-251.79158
10.572,-253.0215
10.574,-254.87451
10.576,-257.1636
10.578,-258.9488
10.58,-260.22186
10.582,-260.63815
10.584,-260.1655
10.586,-258.68115
10.588,-257.49603
10.59,-257.4963
10.592,-259.16486
10.594,-261.80212
10.596,-265.19757
10.598,-268.4093
10.6,-270.67218
10.602,-271.259
10.604,-271.19482
10.606,-271.40823
10.608,-272.67346
10.61,-274.66888
10.612,-277.43808
10.614,-280.08087
10.616,-281.6792
10.618,-281.29965
10.62,-279.78613
10.622,-278.07205
10.624,-277.17633
10.626,-277.22928
10.628,-278.78745
10.63,-281.35904
10.632,-284.1808
10.634,-286.13193
10.636,-287.6219
10.638,-288.9888
10.64,-290.68494
10.642,-292.44983
10.644,-294.76294
10.646,-297.3109
10.648,-299.69064
10.65,-301.18637
10.652,-302.5353
10.654,-304.2324
10.656,-306.6951
10.658,-309.45038
10.66,-312.67468
10.662,-315.68268
10.664,-317.70212
10.666,-317.71222
10.668,-316.3468
10.67,-314.2323
10.672,-312.1986
10.674,-310.40195
10.676,-309.68967
10.678,-309.8522
10.68,-310.19733
10.682,-309.31952
10.684,-307.13358
10.686,-303.47754
10.688,-298.69
10.69,-292.99893
10.692,-287.96967
10.694,-284.5277
10.696,-283.18015
10.698,-283.37796
10.7,-285.24896
10.702,-288.10376
10.704,-291.18524
10.706,-293.43958
10.708,-295.14874
10.71,-296.34918
10.712,-297.18906
10.714,-297.49765
10.716,-297.7552
10.718,-297.85858
10.72,-297.6894
10.722,-297.07925
10.724,-296.6926
10.726,-296.83163
10.728,-297.6894
10.73,-298.96982
10.732,-300.88245
10.734,-302.9609
10.736,-304.69385
10.738,-304.96103
10.74,-304.76846
10.742,-304.70877
10.744,-305.19415
10.746,-304.89923
10.748,-304.4939
10.75,-303.75787
10.752,-302.69257
10.754,-300.624
10.756,-299.19238
10.758,-299.17575
10.76,-300.69128
10.762,-302.18918
10.764,-303.1449
10.766,-302.5391
10.768,-300.19098
10.77,-296.35706
10.772,-293.29788
10.774,-292.21432
10.776,-292.6862
10.778,-291.65515
10.78,-285.92657
10.782,-271.95578
10.784,-248.15787
10.786,-215.42946
10.788,-178.61911
10.79,-143.10162
10.792,-113.07193
10.794,-89.37917
10.796,-71.21129
10.798,-55.90359
10.8,-42.026737
10.802,-31.095291
10.804,-30.040728
10.806,-47.97654
10.808,-93.55952
10.81,-170.82803
10.812,-278.3462
10.814,-406.90872
10.816,-541.8447
10.818,-665.9217
10.82,-765.00385
10.822,-829.3341
10.824,-855.54425
10.826,-845.8682
10.828,-808.32776
10.83,-752.7167
10.832,-688.9383
10.834,-624.7925
10.836,-566.7867
10.838,-518.0792
10.84,-479.3049
10.842,-448.73508
10.844,-424.90286
10.846,-405.65125
10.848,-389.24762
10.85,-374.12656
10.852,-360.5794
10.854,-348.72464
10.856,-338.71548
10.858,-330.01736
10.86,-323.12155
10.862,-317.89435
10.864,-314.1999
10.866,-311.4468
10.868,-310.14328
10.87,-310.1857
10.872,-311.19797
10.874,-312.11917
10.876,-312.6559
10.878,-312.3878
10.88,-311.19797
10.882,-308.9214
10.884,-306.37567
10.886,-304.28894
10.888,-303.19287
10.89,-302.77863
10.892,-303.11163
10.894,-303.74448
10.896,-304.1935
10.898,-303.4798
10.9,-302.54007
10.902,-301.6548
10.904,-301.19162
10.906,-300.62265
10.908,-301.35385
10.91,-302.9776
10.912,-304.69385
10.914,-304.97043
10.916,-304.46945
10.918,-303.12326
10.92,-301.19162
10.922,-298.5988
10.924,-296.84045
10.926,-296.37234
10.928,-297.18906
10.93,-298.2833
10.932,-299.7202
10.934,-300.84787
10.936,-301.19162
10.938,-300.1068
10.94,-298.56253
10.942,-297.10843
10.944,-296.18842
10.946,-295.43073
10.948,-295.3245
10.95,-295.5433
10.952,-295.6881
10.954,-294.98987
10.956,-294.13367
10.958,-293.43405
10.96,-293.18652
10.962,-292.97525
10.964,-293.29108
10.966,-293.82825
10.968,-294.18716
10.97,-293.58234
10.972,-292.65973
10.974,-291.74176
10.976,-291.18524
10.978,-290.68124
10.98,-290.80862
10.982,-291.29877
10.984,-291.68555
10.986,-291.0116
10.988,-289.7164
10.99,-287.9807
10.992,-286.18207
10.994,-284.2327
10.996,-283.10846
10.998,-282.97604
11.0,-283.68048
11.002,-284.31113
11.004,-285.0482
11.006,-285.5714
11.008,-285.68173
11.01,-284.8458
11.012,-283.85654
11.014,-283.0438
11.016,-282.67984
11.018,-282.386
11.02,-282.7576
11.022,-283.63712
11.024,-284.6811
11.026,-284.97458
11.028,-284.82993
11.03,-284.1913
11.032,-283.18015
11.034,-281.56195
11.036,-280.2854
11.038,-279.64584
11.04,-279.67792
11.042,-279.6504
11.044,-279.81274
11.046,-279.87628
11.048,-279.67792
11.05,-278.76874
11.052,-278.0571
11.054,-277.95267
11.056,-278.67728
11.058,-279.62863
11.06,-281.06943
11.062,-282.56128
11.064,-283.68048
11.066,-283.69357
11.068,-283.346
11.07,-283.04834
11.072,-283.18015
11.074,-283.36243
11.076,-284.08038
11.078,-285.00797
11.08,-285.68173
11.082,-285.19403
11.084,-284.0782
11.086,-282.60803
11.088,-281.17886
11.09,-279.59344
11.092,-278.6682
11.094,-278.4325
11.096,-278.67728
11.098,-278.53412
11.1,-278.36282
11.102,-278.0827
11.104,-277.67664
11.106,-276.61105
11.108,-275.5796
11.11,-274.73044
11.112,-274.1744
11.114,-273.4474
11.116,-273.29193
11.118,-273.86227
11.12,-275.17505
11.122,-276.5248
11.124,-278.29453
11.126,-280.26035
11.128,-282.1795
11.13,-283.31894
11.132,-284.30527
11.134,-285.3502
11.136,-286.68237
11.138,-287.89557
11.14,-289.67993
11.142,-292.01608
11.144,-294.68747
11.146,-296.7819
11.148,-298.62674
11.15,-300.09863
11.152,-301.19162
11.154,-301.44946
11.156,-301.7577
11.158,-302.446
11.16,-303.6932
11.162,-304.88892
11.164,-306.50455
11.166,-308.35156
11.168,-310.19733
11.17,-311.27634
11.172,-312.20312
11.174,-313.1341
11.176,-314.1999
11.178,-314.848
11.18,-315.67596
11.182,-316.65524
11.184,-317.70212
11.186,-318.16122
11.188,-318.7109
11.19,-319.5252
11.192,-320.704
11.194,-321.61636
11.196,-322.761
11.198,-324.01175
11.2,-325.20688
11.202,-325.64157
11.204,-325.99115
11.206,-326.46237
11.208,-327.20816
11.21,-327.65036
11.212,-328.35437
11.214,-329.24487
11.216,-330.21005
11.218,-330.58252
11.22,-331.08893
11.222,-331.93304
11.224,-333.21198
11.226,-334.22803
11.228,-335.43857
11.23,-336.65607
11.232,-337.71484
11.234,-337.96228
11.236,-338.25534
11.238,-338.93695
11.24,-340.21643
11.242,-341.4141
11.244,-342.94843
11.246,-344.49545
11.248,-345.71994
11.25,-345.8114
11.252,-345.58722
11.254,-345.43927
11.256,-345.71994
11.258,-345.92563
11.26,-346.70438
11.262,-347.89178
11.264,-349.22217
11.266,-349.8265
11.268,-350.4087
11.27,-351.16385
11.272,-352.22406
11.274,-352.88986
11.276,-353.67462
11.278,-354.35913
11.28,-354.72568
11.282,-354.06863
11.284,-353.31525
11.286,-352.9123
11.288,-353.2247
11.29,-353.75797
11.292,-355.02783
11.294,-356.6753
11.296,-358.2279
11.298,-358.718
11.3,-358.82462
11.302,-358.86716
11.304,-359.22852
11.306,-359.53964
11.308,-360.57712
11.31,-362.23746
11.312,-364.23172
11.314,-365.62216
11.316,-366.97464
11.318,-368.33228
11.32,-369.7352
11.322,-370.52573
11.324,-371.39816
11.326,-372.42435
11.328,-373.73776
11.33,-374.9239
11.332,-376.98102
11.334,-380.0338
11.336,-383.7441
11.338,-386.6734
11.34,-388.5865
11.342,-388.81128
11.344,-387.24634
11.346,-383.8898
11.348,-380.6701
11.35,-378.79965
11.352,-378.74094
11.354,-379.2171
11.356,-379.441
11.358,-377.6791
11.36,-372.73712
11.362,-364.0163
11.364,-353.74323
11.366,-344.36307
11.368,-338.21515
11.37,-335.98
11.372,-338.23813
11.374,-343.54147
11.376,-349.72247
11.378,-354.1915
11.38,-356.64862
11.382,-357.21356
11.384,-356.72693
11.386,-355.6538
11.388,-355.31686
11.39,-355.8056
11.392,-356.72693
11.394,-357.23303
11.396,-357.62607
11.398,-357.9068
11.4,-358.2279
11.402,-358.38895
11.404,-358.96704
11.406,-359.71313
11.408,-360.22916
11.41,-359.67957
11.412,-358.78992
11.414,-357.86426
11.416,-357.22726
11.418,-355.96704
11.42,-355.3489
11.422,-355.62027
11.424,-356.72693
11.426,-357.02686
11.428,-357.23172
11.43,-357.2561
11.432,-357.22726
11.434,-356.4915
11.436,-356.41006
11.438,-357.26285
11.44,-358.7282
11.442,-359.10126
11.444,-358.16888
11.446,-355.42133
11.448,-351.22342
11.45,-346.10474
11.452,-342.2197
11.454,-340.07724
11.456,-338.21515
11.458,-332.51953
11.46,-319.46338
11.462,-296.0162
11.464,-262.16678
11.466,-221.06339
11.468,-180.07652
11.47,-146.2419
11.472,-124.07893
11.474,-113.335915
11.476,-111.52654
11.478,-114.4257
11.48,-120.076385
11.482,-130.60843
11.484,-154.19351
11.486,-200.1757
11.488,-275.17505
11.49,-378.3379
11.492,-501.5402
11.494,-628.8467
11.496,-741.4717
11.498,-822.643
11.5,-863.9952
11.502,-865.33014
11.504,-834.0306
11.506,-781.1596
11.508,-719.54474
11.51,-658.7522
11.512,-604.38446
11.514,-557.8227
11.516,-519.45905
11.518,-488.0592
11.52,-462.2941
11.522,-440.5081
11.524,-422.61273
11.526,-407.92953
11.528,-395.75177
11.53,-384.86914
11.532,-375.60748
11.534,-367.88547
11.536,-361.73013
11.538,-356.5862
11.54,-353.05685
11.542,-350.9213
11.544,-349.72247
11.546,-348.33987
11.548,-346.81198
11.55,-344.80966
11.552,-342.2177
11.554,-338.75763
11.556,-335.31677
11.558,-332.61417
11.56,-331.2107
11.562,-330.80518
11.564,-331.44305
11.566,-332.49612
11.568,-333.21198
11.57,-332.5042
11.572,-330.8619
11.574,-328.71027
11.576,-326.70782
11.578,-324.65408
11.58,-323.9842
11.582,-324.40622
11.584,-325.20688
11.586,-324.83023
11.588,-324.1251
11.59,-322.90216
11.592,-321.20435
11.594,-318.644
11.596,-316.65805
11.598,-315.5311
11.6,-315.20053
11.602,-314.72662
11.604,-314.48984
11.606,-314.0802
11.608,-313.19925
11.61,-311.24478
11.612,-309.22263
11.614,-307.5842
11.616,-306.6951
11.618,-306.16907
11.62,-306.58868
11.622,-307.61343
11.624,-308.69638
11.626,-308.75708
11.628,-308.11954
11.63,-306.72305
11.632,-304.69385
11.634,-301.77722
11.636,-298.99207
11.638,-296.71262
11.64,-295.18777
11.642,-294.03497
11.644,-293.91992
11.646,-294.74585
11.648,-296.18842
11.65,-297.23895
11.652,-298.0097
11.654,-298.07928
11.656,-297.18906
11.658,-294.85074
11.66,-292.00665
11.662,-289.14713
11.664,-286.68237
11.666,-284.32516
11.668,-282.72174
11.67,-281.74927
11.672,-281.17886
11.674,-280.3188
11.676,-279.7481
11.678,-279.5346
11.68,-279.67792
11.682,-279.5524
11.684,-279.53012
11.686,-279.33066
11.688,-278.67728
11.69,-276.96967
11.692,-274.9681
11.694,-273.06467
11.696,-271.67282
11.698,-270.60822
11.7,-270.52457
11.702,-271.21173
11.704,-272.17316
11.706,-272.34583
11.708,-271.8695
11.71,-270.5973
11.712,-268.67093
11.714,-266.03082
11.716,-263.7981
11.718,-262.45193
11.72,-262.16678
11.722,-262.31808
11.724,-263.04648
11.726,-263.82883
11.728,-264.16806
11.73,-263.32904
11.732,-261.95425
11.734,-260.41577
11.736,-259.16486
11.738,-258.10858
11.74,-258.00854
11.742,-258.8065
11.744,-260.1655
11.746,-261.15515
11.748,-261.941
11.75,-262.3052
11.752,-262.16678
11.754,-261.10614
11.756,-259.8236
11.758,-258.4879
11.76,-257.1636
11.762,-255.34917
11.764,-253.57578
11.766,-251.8497
11.768,-250.15913
11.77,-248.02185
11.772,-246.06892
11.774,-244.42365
11.776,-243.15468
11.778,-241.78612
11.78,-240.82896
11.782,-240.18976
11.784,-239.65245
11.786,-238.4708
11.788,-237.03172
11.79,-235.36273
11.792,-233.64864
11.794,-231.72638
11.796,-230.56856
11.798,-230.52512
11.8,-231.64737
11.802,-233.16049
11.804,-235.1348
11.806,-237.08803
11.808,-238.65182
11.81,-239.22556
11.812,-239.57932
11.814,-240.12204
11.816,-241.15341
11.818,-242.2083
11.82,-243.61992
11.822,-245.05011
11.824,-246.1566
11.826,-246.30547
11.828,-246.26816
11.83,-246.55322
11.832,-247.65755
11.834,-249.34015
11.836,-252.09831
11.838,-255.57346
11.84,-259.16486
11.842,-261.7584
11.844,-263.53247
11.846,-264.44907
11.848,-264.66837
11.85,-263.9481
11.852,-263.12003
11.854,-262.46707
11.856,-262.16678
11.858,-261.8357
11.86,-262.14343
11.862,-263.24673
11.864,-265.1687
11.866,-267.2532
11.868,-269.7502
11.87,-272.3398
11.872,-274.67474
11.874,-276.00543
11.876,-276.8136
11.878,-277.28912
11.88,-277.67664
11.882,-277.68237
11.884,-277.97845
11.886,-278.65808
11.888,-279.67792
11.89,-280.40466
11.892,-281.2611
11.894,-282.20764
11.896,-283.18015
11.898,-283.58804
11.9,-283.9347
11.902,-284.2781
11.904,-284.6811
11.906,-284.7032
11.908,-284.9919
11.91,-285.66022
11.912,-286.68237
11.914,-287.36578
11.916,-288.0383
11.918,-288.5248
11.92,-288.68365
11.922,-287.94736
11.924,-287.05383
11.926,-286.35312
11.928,-286.18207
11.93,-286.20844
11.932,-287.0807
11.934,-288.69147
11.936,-290.68494
11.938,-292.03128
11.94,-292.88824
11.942,-293.08585
11.944,-292.6862
11.946,-291.45563
11.948,-290.43298
11.95,-290.10086
11.952,-290.68494
11.954,-291.57736
11.956,-292.98642
11.958,-294.48282
11.96,-295.6881
11.962,-295.9486
11.964,-295.98987
11.966,-296.1565
11.968,-296.68875
11.97,-297.0597
11.972,-297.62195
11.974,-298.0781
11.976,-298.1897
11.978,-297.45047
11.98,-296.79514
11.982,-296.75458
11.984,-297.6894
11.986,-299.07764
11.988,-301.17755
11.99,-303.52023
11.992,-305.69446
11.994,-307.0723
11.996,-308.517
11.998,-310.48532
12.0,-313.19925
12.002,-315.89618
12.004,-318.5272
12.006,-320.32413
12.008,-320.704
12.01,-319.08063
12.012,-316.58292
12.014,-314.0777
12.016,-312.1986
12.018,-310.44592
12.02,-308.80972
12.022,-306.34235
12.024,-302.19223
12.026,-295.59888
12.028,-287.8468
12.03,-280.35516
12.032,-274.67474
12.034,-271.3793
12.036,-271.35245
12.038,-274.02362
12.04,-278.17697
12.042,-281.9587
12.044,-285.0126
12.046,-287.02435
12.048,-288.18332
12.05,-288.50314
12.052,-288.96222
12.054,-289.74048
12.056,-290.68494
12.058,-291.20584
12.06,-291.40897
12.062,-291.0702
12.064,-290.1846
12.066,-288.8081
12.068,-287.7669
12.07,-287.3706
12.072,-287.683
12.074,-288.15747
12.076,-288.98132
12.078,-289.76736
12.08,-290.1846
12.082,-289.21664
12.084,-288.1034
12.086,-287.5844
12.088,-288.18332
12.09,-288.7705
12.092,-289.89365
12.094,-291.12845
12.096,-292.18588
12.098,-292.28012
12.1,-292.6525
12.102,-293.8083
12.104,-295.6881
12.106,-296.79993
12.108,-296.64087
12.11,-294.39227
12.112,-290.1846
12.114,-284.69504
12.116,-280.34753
12.118,-278.2862
12.12,-277.67664
12.122,-274.8241
12.124,-265.81805
12.126,-246.81451
12.128,-216.63782
12.13,-177.36943
12.132,-135.43472
12.134,-97.665596
12.136,-69.04392
12.138,-50.353783
12.14,-40.02408
12.142,-34.62243
12.144,-32.520687
12.146,-35.807014
12.148,-52.145256
12.15,-90.627625
12.152,-158.10057
12.154,-254.64421
12.156,-373.2678
12.158,-499.33374
12.16,-614.8912
12.162,-703.2329
12.164,-754.8513
12.166,-767.79285
12.168,-747.4755
12.17,-703.4756
12.172,-647.725
12.174,-589.98737
12.176,-536.8415
12.178,-491.06296
12.18,-454.00464
12.182,-424.91797
12.184,-402.2559
12.186,-383.7026
12.188,-368.1373
12.19,-354.23465
12.192,-341.21707
12.194,-328.50674
12.196,-317.24454
12.198,-308.27844
12.2,-302.19223
12.202,-298.47888
12.204,-297.04373
12.206,-296.82642
12.208,-296.68875
12.21,-295.38382
12.212,-293.1768
12.214,-290.41653
12.216,-287.683
12.218,-285.14804
12.22,-283.43314
12.222,-282.66376
12.224,-282.67984
12.226,-282.7832
12.228,-282.8365
12.23,-282.65155
12.232,-282.1795
12.234,-281.07468
12.236,-279.89572
12.238,-278.87997
12.24,-278.17697
12.242,-277.12885
12.244,-276.5732
12.246,-276.20383
12.248,-275.67538
12.25,-274.0966
12.252,-272.68967
12.254,-271.54565
12.256,-270.67218
12.258,-269.45895
12.26,-268.7854
12.262,-268.57962
12.264,-268.67093
12.266,-268.38388
12.268,-268.34216
12.27,-268.4857
12.272,-268.67093
12.274,-268.22406
12.276,-267.57233
12.278,-266.57706
12.28,-265.1687
12.282,-262.9863
12.284,-260.8762
12.286,-259.1943
12.288,-258.16425
12.29,-257.35028
12.292,-257.12393
12.294,-257.17712
12.296,-257.1636
12.298,-256.4368
12.3,-255.56277
12.302,-254.74258
12.304,-254.16168
12.306,-253.45724
12.308,-253.09767
12.31,-252.91013
12.312,-252.66074
12.314,-251.76065
12.316,-250.7773
12.318,-249.87091
12.32,-249.15851
12.322,-248.20474
12.324,-247.42348
12.326,-246.63647
12.328,-245.65628
12.33,-243.99185
12.332,-242.29587
12.334,-240.80292
12.336,-239.65245
12.338,-238.37784
12.34,-237.29427
12.342,-236.13086
12.344,-234.64928
12.346,-232.39264
12.348,-230.12103
12.35,-228.2567
12.352,-227.1445
12.354,-226.46815
12.356,-226.59
12.358,-227.14195
12.36,-227.64482
12.362,-227.29686
12.364,-226.49352
12.366,-225.36998
12.368,-224.1426
12.37,-222.5779
12.372,-221.29381
12.374,-220.32736
12.376,-219.63972
12.378,-218.80809
12.38,-218.43347
12.382,-218.68571
12.384,-219.63972
12.386,-220.78899
12.388,-222.36072
12.39,-223.96384
12.392,-225.14323
12.394,-225.14627
12.396,-224.39096
12.398,-223.09756
12.4,-221.641
12.402,-220.01405
12.404,-219.02762
12.406,-218.79753
12.408,-219.1394
12.41,-219.24336
12.412,-219.21616
12.414,-218.84604
12.416,-218.13878
12.418,-216.91922
12.42,-216.10533
12.422,-216.12451
12.424,-217.13814
12.426,-218.52242
12.428,-220.32234
12.43,-222.01517
12.432,-223.14195
12.434,-223.06236
12.436,-222.41417
12.438,-221.63034
12.44,-221.14069
12.442,-220.7379
12.444,-220.8788
12.446,-221.31488
12.448,-221.641
12.45,-221.06496
12.452,-219.96164
12.454,-218.53593
12.456,-217.13814
12.458,-215.67928
12.46,-214.86928
12.462,-214.75725
12.464,-215.13686
12.466,-215.22777
12.468,-215.24461
12.47,-215.15807
12.472,-215.13686
12.474,-215.04597
12.476,-215.73695
12.478,-217.46083
12.48,-220.14005
12.482,-222.9123
12.484,-225.70192
12.486,-228.03294
12.488,-229.64609
12.49,-230.17462
12.492,-230.5451
12.494,-231.38441
12.496,-233.14832
12.498,-235.4658
12.5,-238.51816
12.502,-241.77829
12.504,-244.65564
12.506,-246.29358
12.508,-247.1744
12.51,-247.65393
12.512,-248.15787
12.514,-248.48611
12.516,-249.1552
12.518,-249.98431
12.52,-250.65945
12.522,-250.47807
12.524,-249.95963
12.526,-249.4055
12.528,-249.15851
12.53,-248.96504
12.532,-249.33885
12.534,-250.15163
12.536,-251.15977
12.538,-251.70242
12.54,-252.26215
12.542,-253.02577
12.544,-254.16168
12.546,-255.23314
12.548,-256.61905
12.55,-258.1581
12.552,-259.6652
12.554,-260.57715
12.556,-261.4532
12.558,-262.46866
12.56,-263.66772
12.562,-264.41003
12.564,-264.87784
12.566,-264.82056
12.568,-264.16806
12.57,-262.70557
12.572,-261.5272
12.574,-261.36053
12.576,-262.66708
12.578,-264.93805
12.58,-268.15176
12.582,-271.50504
12.584,-274.1744
12.586,-275.18274
12.588,-275.08133
12.59,-274.37204
12.592,-273.6741
12.594,-272.947
12.596,-272.84802
12.598,-273.21323
12.6,-273.6741
12.602,-273.41882
12.604,-272.92136
12.606,-272.4091
12.608,-272.17316
12.61,-271.89932
12.612,-272.15332
12.614,-272.8226
12.616,-273.6741
12.618,-274.01367
12.62,-274.35873
12.622,-274.8669
12.624,-275.67538
12.626,-276.2953
12.628,-277.1087
12.63,-277.85
12.632,-278.17697
12.634,-277.36038
12.636,-275.94882
12.638,-274.24475
12.64,-272.67346
12.642,-271.18622
12.644,-270.56955
12.646,-270.83502
12.648,-271.67282
12.65,-272.11404
12.652,-272.26352
12.654,-271.92868
12.656,-271.17252
12.658,-269.83444
12.66,-268.90735
12.662,-268.80954
12.664,-269.67154
12.666,-270.81265
12.668,-272.3806
12.67,-273.94522
12.672,-275.17505
12.674,-275.52078
12.676,-275.81104
12.678,-276.55032
12.68,-278.17697
12.682,-280.3755
12.684,-283.4774
12.686,-286.8803
12.688,-289.6843
12.69,-290.5308
12.692,-289.50787
12.694,-286.80197
12.696,-283.18015
12.698,-279.2756
12.7,-276.69693
12.702,-275.96252
12.704,-276.67603
12.706,-277.1323
12.708,-276.33566
12.71,-273.10367
12.712,-267.16995
12.714,-258.99023
12.716,-251.06326
12.718,-245.60922
12.72,-244.15532
12.722,-246.42213
12.724,-251.72237
12.726,-257.89505
12.728,-262.66708
12.73,-264.15125
12.732,-262.76508
12.734,-259.6789
12.736,-256.66327
12.738,-255.02045
12.74,-255.83395
12.742,-258.63977
12.744,-262.16678
12.746,-264.94827
12.748,-266.30853
12.75,-265.9279
12.752,-264.16806
12.754,-261.77414
12.756,-259.89822
12.758,-259.0129
12.76,-259.16486
12.762,-259.64008
12.764,-260.78363
12.766,-262.40182
12.768,-264.16806
12.77,-264.51495
12.772,-264.06976
12.774,-262.98187
12.776,-261.66647
12.778,-259.52563
12.78,-258.21634
12.782,-258.40363
12.784,-260.1655
12.786,-261.94824
12.788,-263.5352
12.79,-264.07913
12.792,-263.16742
12.794,-260.32153
12.796,-256.97314
12.798,-254.00179
12.8,-251.6601
12.802,-248.58151
12.804,-243.5204
12.806,-234.12425
12.808,-218.13878
12.81,-193.67511
12.812,-161.31789
12.814,-122.59005
12.816,-80.05093
12.818,-36.225338
12.82,5.4440093
12.822,42.424984
12.824,72.54615
12.826,94.01304
12.828,103.38669
12.83,96.8489
12.832,70.04456
12.834,19.467165
12.836,-57.59475
12.838,-160.08124
12.84,-282.67984
12.842,-415.48624
12.844,-546.7648
12.846,-663.7115
12.848,-755.4806
12.85,-814.88403
12.852,-840.8802
12.854,-836.7382
12.856,-809.01465
12.858,-765.1269
12.86,-712.9683
12.862,-658.2951
12.864,-604.8848
12.866,-554.4713
12.868,-508.76877
12.87,-468.45502
12.872,-433.77594
12.874,-404.08316
12.876,-379.2093
12.878,-358.12686
12.88,-339.71613
12.882,-322.75043
12.884,-307.50735
12.886,-294.31613
12.888,-283.68048
12.89,-275.50464
12.892,-270.08655
12.894,-266.79623
12.896,-264.66837
12.898,-262.45084
12.9,-259.84354
12.902,-256.8113
12.904,-253.66136
12.906,-250.58473
12.908,-248.00282
12.91,-246.17897
12.912,-245.15596
12.914,-244.54453
12.916,-244.17259
12.918,-243.90613
12.92,-243.655
12.922,-242.91145
12.924,-242.10794
12.926,-241.19194
12.928,-240.15277
12.93,-238.40277
12.932,-237.19502
12.934,-236.50261
12.936,-236.15022
12.938,-235.28038
12.94,-234.9449
12.942,-234.8611
12.944,-234.64928
12.946,-233.47908
12.948,-232.18817
12.95,-230.7504
12.952,-229.14577
12.954,-226.96169
12.956,-225.023
12.958,-223.41998
12.96,-222.14131
12.962,-220.72006
12.964,-219.66063
12.966,-218.85493
12.968,-218.13878
12.97,-217.00383
12.972,-215.87776
12.974,-214.75331
12.976,-213.63591
12.978,-212.22015
12.98,-211.04793
12.982,-210.18687
12.984,-209.63336
12.986,-209.00447
12.988,-208.65277
12.99,-208.43336
12.992,-208.1324
12.994,-207.22397
12.996,-206.01013
12.998,-204.46248
13.0,-202.6289
13.002,-200.32661
13.004,-198.16277
13.006,-196.26744
13.008,-194.62381
13.01,-192.779
13.012,-190.94786
13.014,-188.93475
13.016,-186.61871
13.018,-183.74957
13.02,-180.98875
13.022,-178.68214
13.024,-177.11267
13.026,-176.10507
13.028,-175.99364
13.03,-176.48357
13.032,-177.11267
13.034,-177.11324
13.036,-176.5731
13.038,-175.38318
13.04,-173.61044
13.042,-171.1693
13.044,-168.73103
13.046,-166.51982
13.048,-164.60472
13.05,-162.62079
13.052,-160.81508
13.054,-159.02414
13.056,-157.09995
13.058,-154.69193
13.06,-152.26971
13.062,-150.0114
13.064,-148.09421
13.066,-146.35008
13.068,-145.23367
13.07,-144.7069
13.072,-144.59198
13.074,-144.33092
13.076,-144.08319
13.078,-143.69661
13.08,-143.09103
13.082,-141.96837
13.084,-140.83508
13.086,-139.84676
13.088,-139.08849
13.09,-138.24536
13.092,-137.65846
13.094,-137.2873
13.096,-137.0872
13.098,-136.72647
13.1,-136.65022
13.102,-136.94386
13.104,-137.58752
13.106,-138.09814
13.108,-138.634
13.11,-139.00612
13.112,-139.08849
13.114,-138.55301
13.116,-137.95724
13.118,-137.57538
13.12,-137.58752
13.122,-137.65201
13.124,-138.01976
13.126,-138.53755
13.128,-139.08849
13.13,-139.33824
13.132,-139.85095
13.134,-140.89708
13.136,-142.59071
13.138,-144.43123
13.14,-146.43567
13.142,-148.23845
13.144,-149.59517
13.146,-150.18282
13.148,-150.71591
13.15,-151.73041
13.152,-153.59772
13.154,-155.95119
13.156,-158.7641
13.158,-161.48354
13.16,-163.60408
13.162,-164.57661
13.164,-165.04166
13.166,-165.66267
13.168,-167.10631
13.17,-169.35936
13.172,-172.69019
13.174,-176.65767
13.176,-180.6149
13.178,-183.6273
13.18,-185.82005
13.182,-187.3666
13.184,-188.62
13.186,-189.52281
13.188,-190.62747
13.19,-192.0091
13.192,-193.62317
13.194,-195.03491
13.196,-196.66214
13.198,-198.66856
13.2,-201.12794
13.202,-203.5311
13.204,-205.94875
13.206,-208.06714
13.208,-209.63336
13.21,-210.20827
13.212,-210.41171
13.214,-210.73799
13.216,-211.63463
13.218,-212.89948
13.22,-214.80147
13.222,-217.0279
13.224,-219.1394
13.226,-220.36586
13.228,-221.00436
13.23,-221.30142
13.232,-221.641
13.234,-221.95065
13.236,-222.82507
13.238,-224.29112
13.24,-226.14386
13.242,-227.61694
13.244,-228.86949
13.246,-229.85086
13.248,-230.64673
13.25,-231.00053
13.252,-231.5596
13.254,-232.57103
13.256,-234.14896
13.258,-235.8105
13.26,-237.84254
13.262,-240.05264
13.264,-242.15405
13.266,-243.40904
13.268,-244.0386
13.27,-244.05334
13.272,-243.655
13.274,-242.80782
13.276,-242.39935
13.278,-242.82016
13.28,-244.15532
13.282,-245.71977
13.284,-247.49652
13.286,-249.05865
13.288,-250.15913
13.29,-250.42728
13.292,-250.67351
13.294,-251.34761
13.296,-252.66074
13.298,-254.01793
13.3,-255.45715
13.302,-256.56464
13.304,-257.1636
13.306,-257.0751
13.308,-257.43054
13.31,-259.0005
13.312,-262.16678
13.314,-266.19855
13.316,-270.6525
13.318,-274.32712
13.32,-276.1757
13.322,-275.343
13.324,-272.77295
13.326,-269.62262
13.328,-267.16995
13.33,-265.8146
13.332,-266.1079
13.334,-267.31906
13.336,-268.1706
13.338,-266.94925
13.34,-263.45618
13.342,-257.87946
13.344,-251.15977
13.346,-244.21806
13.348,-238.9138
13.35,-236.169
13.352,-236.15022
13.354,-237.8737
13.356,-240.85275
13.358,-244.05246
13.36,-246.6569
13.362,-247.91753
13.364,-248.39568
13.366,-248.50154
13.368,-248.65819
13.37,-248.89287
13.372,-249.4858
13.374,-250.05696
13.376,-250.15913
13.378,-249.41951
13.38,-248.32268
13.382,-247.2551
13.384,-246.6569
13.386,-246.58688
13.388,-247.46573
13.39,-248.98886
13.392,-250.65945
13.394,-251.26869
13.396,-251.56381
13.398,-251.93982
13.4,-252.66074
13.402,-252.41096
13.404,-251.77011
13.406,-250.61484
13.408,-249.15851
13.41,-247.14325
13.412,-246.28648
13.414,-247.34879
13.416,-250.15913
13.418,-252.77983
13.42,-254.01611
13.422,-252.50092
13.424,-248.15787
13.426,-241.94585
13.428,-236.82828
13.43,-234.65794
13.432,-235.1496
13.434,-234.84067
13.436,-229.45114
13.438,-214.5069
13.44,-188.11967
13.442,-151.9363
13.444,-112.15711
13.446,-75.87277
13.448,-48.530872
13.45,-31.29587
13.452,-22.246964
13.454,-16.911816
13.456,-12.007639
13.458,-8.003935
13.46,-11.605157
13.462,-32.70294
13.464,-81.05156
13.466,-161.48761
13.468,-272.2105
13.47,-402.792
13.472,-536.8415
13.474,-655.77167
13.476,-744.77454
13.478,-794.8316
13.48,-804.5118
13.482,-778.7688
13.484,-728.0074
13.486,-663.7322
13.488,-596.3794
13.49,-533.2125
13.492,-479.06995
13.494,-435.23898
13.496,-400.75494
13.498,-373.0951
13.5,-350.53247
13.502,-331.38806
13.504,-314.7002
13.506,-299.72052
13.508,-286.9615
13.51,-276.48978
13.512,-268.1706
13.514,-261.28683
13.516,-255.97421
13.518,-251.99353
13.52,-249.15851
13.522,-246.9139
13.524,-245.44662
13.526,-244.47694
13.528,-243.655
13.53,-242.4067
13.532,-240.90428
13.534,-239.38316
13.536,-238.1515
13.538,-237.12462
13.54,-236.46698
13.542,-236.04951
13.544,-235.64992
13.546,-234.77315
13.548,-233.66457
13.55,-232.53513
13.552,-231.64737
13.554,-230.60318
13.556,-230.21529
13.558,-230.19838
13.56,-230.14641
13.562,-229.07591
13.564,-228.0954
13.566,-227.14178
13.568,-226.14386
13.57,-224.54309
13.572,-223.3642
13.574,-222.61218
13.576,-222.14131
13.578,-221.30737
13.58,-220.66017
13.582,-220.12523
13.584,-219.63972
13.586,-218.78357
13.588,-218.15942
13.59,-217.80023
13.592,-217.63846
13.594,-217.16339
13.596,-216.73251
13.598,-216.2476
13.6,-215.63718
13.602,-214.5443
13.604,-213.52783
13.606,-212.71228
13.608,-212.13495
13.61,-211.3806
13.612,-210.78886
13.614,-210.24092
13.616,-209.63336
13.618,-208.602
13.62,-207.68784
13.622,-207.0228
13.624,-206.63145
13.626,-206.0471
13.628,-205.49725
13.63,-204.7507
13.632,-203.62955
13.634,-201.77844
13.636,-199.85466
13.638,-198.20934
13.64,-197.1254
13.642,-196.3484
13.644,-196.20802
13.646,-196.4257
13.648,-196.62509
13.65,-196.14615
13.652,-195.32219
13.654,-194.25688
13.656,-193.12286
13.658,-191.71805
13.66,-190.53906
13.662,-189.55325
13.664,-188.62
13.666,-187.24069
13.668,-185.80537
13.67,-184.39597
13.672,-183.11649
13.674,-181.68982
13.676,-180.57535
13.678,-179.75114
13.68,-179.11395
13.682,-178.19615
13.684,-177.37439
13.686,-176.67458
13.688,-176.11203
13.69,-175.32346
13.692,-174.72171
13.694,-174.31767
13.696,-174.11076
13.698,-173.77335
13.7,-173.79343
13.702,-174.24867
13.704,-175.1114
13.706,-175.88737
13.708,-176.81458
13.71,-177.75247
13.712,-178.61363
13.714,-179.05104
13.716,-179.61461
13.718,-180.46451
13.72,-181.61554
13.722,-182.52374
13.724,-183.31783
13.726,-183.73463
13.728,-183.6168
13.73,-182.65645
13.732,-181.60426
13.734,-180.95752
13.736,-181.11522
13.738,-181.83391
13.74,-183.36159
13.742,-185.30121
13.744,-187.11903
13.746,-187.97786
13.748,-188.11739
13.75,-187.71022
13.752,-187.11903
13.754,-186.35559
13.756,-186.1406
13.758,-186.60783
13.76,-187.61935
13.762,-188.45801
13.764,-189.1855
13.766,-189.59503
13.768,-189.62064
13.77,-188.96136
13.772,-188.27579
13.774,-187.90915
13.776,-188.11967
13.778,-188.61308
13.78,-189.77164
13.782,-191.5024
13.784,-193.62317
13.786,-195.53223
13.788,-197.51144
13.79,-199.5466
13.792,-201.62827
13.794,-203.3096
13.796,-204.96642
13.798,-206.58766
13.8,-208.1324
13.802,-209.14629
13.804,-210.08182
13.806,-211.05199
13.808,-212.13495
13.81,-212.92566
13.812,-213.84514
13.814,-214.91559
13.816,-216.1375
13.818,-217.09357
13.82,-218.27478
13.822,-219.78857
13.824,-221.641
13.826,-223.26778
13.828,-224.9126
13.83,-226.41333
13.832,-227.64482
13.834,-228.162
13.836,-228.55936
13.838,-229.13771
13.84,-230.14641
13.842,-231.2404
13.844,-232.8116
13.846,-234.7058
13.848,-236.65054
13.85,-237.91681
13.852,-238.79192
13.854,-239.32147
13.856,-239.65245
13.858,-239.53224
13.86,-239.62827
13.862,-240.14868
13.864,-241.15341
13.866,-242.10323
13.868,-243.31519
13.87,-244.69524
13.872,-246.1566
13.874,-247.18617
13.876,-248.25996
13.878,-249.43124
13.88,-250.65945
13.882,-251.34741
13.884,-251.86465
13.886,-252.24881
13.888,-252.66074
13.89,-252.89873
13.892,-253.7924
13.894,-255.58585
13.896,-258.16425
13.898,-260.52383
13.9,-262.46756
13.902,-263.42624
13.904,-263.16742
13.906,-261.4768
13.908,-259.63312
13.91,-258.6281
13.912,-259.16486
13.914,-260.85007
13.916,-263.67822
13.918,-266.7639
13.92,-269.17123
13.922,-269.85284
13.924,-269.37393
13.926,-268.37372
13.928,-267.6703
13.93,-267.4209
13.932,-268.32156
13.934,-270.11008
13.936,-272.17316
13.938,-273.3983
13.94,-273.95642
13.942,-273.9335
13.944,-273.6741
13.946,-273.11725
13.948,-273.07773
13.95,-273.6528
13.952,-274.67474
13.954,-275.3817
13.956,-276.13202
13.958,-276.9939
13.96,-278.17697
13.962,-279.457
13.964,-281.56995
13.966,-284.56152
13.968,-288.18332
13.97,-291.47598
13.972,-294.4279
13.974,-296.59766
13.976,-297.6894
13.978,-297.15967
13.98,-295.80658
13.982,-294.13855
13.984,-292.6862
13.986,-291.34222
13.988,-290.7745
13.99,-290.7591
13.992,-290.68494
13.994,-289.28052
13.996,-286.47293
13.998,-282.13007
14.0,-276.67603
14.002,-270.55142
14.004,-265.50748
14.006,-262.58096
14.008,-262.16678
14.01,-263.38147
14.012,-265.7363
14.014,-267.99768
14.016,-269.17123
14.018,-268.49744
14.02,-266.9448
14.022,-265.503
14.024,-265.1687
14.026,-266.21786
14.028,-268.8826
14.03,-272.2699
14.032,-275.17505
14.034,-276.4618
14.036,-276.1455
14.038,-274.48566
14.04,-272.17316
14.042,-269.83868
14.044,-268.49124
14.046,-268.32675
14.048,-269.17123
14.05,-270.05145
14.052,-271.53293
14.054,-273.64203
14.056,-276.1757
14.058,-277.4451
14.06,-277.7164
14.062,-276.7162
14.064,-274.67474
14.066,-271.46365
14.068,-269.1286
14.07,-268.79303
14.072,-270.67218
14.074,-273.11838
14.076,-275.12265
14.078,-275.1633
14.08,-272.67346
14.082,-267.86627
14.084,-263.11002
14.086,-260.0114
14.088,-258.66455
14.09,-256.5414
14.092,-250.64949
14.094,-237.44647
14.096,-215.13686
14.098,-184.36826
14.1,-149.60397
14.102,-115.97842
14.104,-87.5557
14.106,-65.18118
14.108,-47.732086
14.11,-32.06353
14.112,-16.010185
14.114,-0.3151777
14.116,8.840786
14.118,2.525711
14.12,-28.518143
14.122,-89.83974
14.124,-181.94298
14.126,-297.74304
14.128,-424.2699
14.13,-545.2254
14.132,-646.1829
14.134,-716.2653
14.136,-750.4774
14.138,-749.5141
14.14,-720.0555
14.142,-671.23505
14.144,-612.8899
14.146,-553.24817
14.148,-499.12756
14.15,-453.92075
14.152,-418.26608
14.154,-390.38403
14.156,-368.56512
14.158,-350.66177
14.16,-335.21326
14.162,-321.227
14.164,-309.31384
14.166,-299.69434
14.168,-292.18588
14.17,-285.6415
14.172,-279.5649
14.174,-273.14795
14.176,-266.1693
14.178,-258.8113
14.18,-252.70334
14.182,-249.1051
14.184,-248.65819
14.186,-250.69751
14.188,-254.26315
14.19,-257.73126
14.192,-259.6652
14.194,-259.09805
14.196,-256.51907
14.198,-253.0874
14.2,-250.15913
14.202,-248.35269
14.204,-247.94139
14.206,-248.25188
14.208,-248.15787
14.21,-246.13597
14.212,-242.48749
14.214,-237.62961
14.216,-232.648
14.218,-228.2316
14.22,-226.53699
14.222,-227.65576
14.224,-230.64673
14.226,-233.37997
14.228,-235.24359
14.23,-235.11095
14.232,-232.648
14.234,-227.99985
14.236,-223.18231
14.238,-219.60605
14.24,-218.13878
14.242,-218.37355
14.244,-220.10977
14.246,-222.09927
14.248,-223.14195
14.25,-222.23155
14.252,-220.10274
14.254,-217.58965
14.256,-215.63718
14.258,-214.46033
14.26,-214.51913
14.262,-215.20746
14.264,-215.63718
14.266,-214.76895
14.268,-212.94792
14.27,-210.65053
14.272,-208.63272
14.274,-207.19366
14.276,-207.05473
14.278,-207.93587
14.28,-209.13304
14.282,-209.5139
14.284,-209.04103
14.286,-207.65175
14.288,-205.63081
14.29,-203.09474
14.292,-200.95415
