time_sec,ecg
0.0,-269.67154
0.002,-300.97028
0.004,-304.43503
0.006,-288.88953
0.008,-267.6703
0.01,-252.2803
0.012,-248.77664
0.014,-255.95732
0.016,-267.6703
0.018,-276.51614
0.02,-278.42773
0.022,-273.60678
0.024,-265.669
0.026,-258.7808
0.028,-256.06747
0.03,-257.83505
0.032,-262.16678
0.034,-266.14822
0.036,-268.31738
0.038,-268.7394
0.04,-268.67093
0.042,-269.14288
0.044,-270.88498
0.046,-273.43585
0.048,-275.67538
0.05,-276.26257
0.052,-275.12604
0.054,-272.9204
0.056,-270.67218
0.058,-268.81946
0.06,-267.69537
0.062,-266.97897
0.064,-266.1693
0.066,-264.67584
0.068,-262.91037
0.07,-261.53555
0.072,-261.16614
0.074,-261.65115
0.076,-262.80875
0.078,-264.01657
0.08,-264.66837
0.082,-264.00787
0.084,-262.76245
0.086,-261.47272
0.088,-260.66583
0.09,-260.10962
0.092,-260.21494
0.094,-260.57138
0.096,-260.66583
0.098,-259.70016
0.1,-258.28586
0.102,-256.80884
0.104,-255.66264
0.106,-254.55911
0.108,-253.9466
0.11,-253.5706
0.112,-253.16106
0.114,-252.20361
0.116,-251.47981
0.118,-251.39644
0.12,-252.16042
0.122,-253.12393
0.124,-254.27483
0.126,-254.95033
0.128,-254.662
0.13,-252.9648
0.132,-250.94508
0.134,-249.45622
0.136,-249.15851
0.138,-249.75288
0.14,-251.28207
0.142,-252.88004
0.144,-253.66136
0.146,-252.74812
0.148,-250.8968
0.15,-248.90143
0.152,-247.65755
0.154,-247.31299
0.156,-248.44958
0.158,-250.63803
0.16,-253.16106
0.162,-254.9427
0.164,-256.29584
0.166,-257.42307
0.168,-258.66455
0.17,-259.78323
0.172,-261.2014
0.174,-262.52167
0.176,-263.16742
0.178,-262.2418
0.18,-260.21707
0.182,-257.48697
0.184,-254.662
0.186,-251.88025
0.188,-250.04604
0.19,-249.23282
0.192,-249.15851
0.194,-248.90128
0.196,-248.47453
0.198,-247.4919
0.2,-245.65628
0.202,-242.36192
0.204,-238.18312
0.206,-233.44217
0.208,-228.64546
0.21,-223.9842
0.212,-220.61429
0.214,-218.98956
0.216,-219.1394
0.218,-220.22691
0.22,-222.11916
0.222,-224.2151
0.224,-226.14386
0.226,-227.48555
0.228,-229.1388
0.23,-231.61519
0.232,-235.1496
0.234,-239.07172
0.236,-243.12062
0.238,-246.29256
0.24,-247.65755
0.242,-246.4904
0.244,-243.48962
0.246,-239.60414
0.248,-236.15022
0.25,-234.3276
0.252,-235.11191
0.254,-238.25082
0.256,-242.65437
0.258,-246.8797
0.26,-249.67188
0.262,-249.99023
0.264,-247.65755
0.266,-243.39088
0.268,-238.9772
0.27,-235.91606
0.272,-235.1496
0.274,-236.0984
0.276,-238.7827
0.278,-242.19048
0.28,-245.15596
0.282,-245.88838
0.284,-244.80928
0.286,-242.41148
0.288,-239.65245
0.29,-236.96098
0.292,-235.73845
0.294,-236.28464
0.296,-238.1515
0.298,-239.84529
0.3,-240.71657
0.302,-240.02574
0.304,-237.65118
0.306,-233.5943
0.308,-228.7996
0.31,-223.10681
0.312,-215.13686
0.314,-201.99646
0.316,-181.34225
0.318,-151.31804
0.32,-112.0713
0.322,-65.75355
0.324,-17.107897
0.326,29.36371
0.328,70.544876
0.33,105.78625
0.332,135.1009
0.334,158.69698
0.336,174.61108
0.338,178.0291
0.34,160.88922
0.342,115.78005
0.344,39.024826
0.346,-66.176605
0.348,-190.1993
0.35,-317.5709
0.352,-431.27435
0.354,-516.9003
0.356,-567.2029
0.358,-582.00714
0.36,-567.36096
0.362,-532.3887
0.364,-487.35886
0.366,-440.1487
0.368,-395.75177
0.37,-356.28098
0.372,-322.99667
0.374,-295.9242
0.376,-274.67474
0.378,-258.20184
0.38,-245.89212
0.382,-236.45938
0.384,-228.64546
0.386,-221.29099
0.388,-214.61737
0.39,-208.92674
0.392,-204.63017
0.394,-201.56694
0.396,-199.84998
0.398,-198.80739
0.4,-197.62572
0.402,-195.4572
0.404,-192.45456
0.406,-188.98332
0.408,-185.61809
0.41,-182.71584
0.412,-180.58661
0.414,-179.28584
0.416,-178.61363
0.418,-178.13536
0.42,-177.44083
0.422,-176.52492
0.424,-175.61171
0.426,-174.84734
0.428,-174.55861
0.43,-174.87274
0.432,-175.61171
0.434,-175.8526
0.436,-175.59659
0.438,-174.24907
0.44,-171.60918
0.442,-167.59805
0.444,-163.94351
0.446,-161.48807
0.448,-160.60217
0.45,-160.6416
0.452,-161.42357
0.454,-161.8721
0.456,-161.1025
0.458,-158.566
0.46,-155.28079
0.462,-152.29222
0.464,-150.59581
0.466,-150.39264
0.468,-151.88324
0.47,-154.28358
0.472,-156.59962
0.474,-157.83911
0.476,-158.19406
0.478,-157.96915
0.48,-157.60027
0.482,-157.05844
0.484,-156.56998
0.486,-155.72394
0.488,-154.09804
0.49,-151.34317
0.492,-148.2358
0.494,-145.56879
0.496,-144.09166
0.498,-143.88618
0.5,-145.02353
0.502,-146.74324
0.504,-148.09421
0.506,-148.12196
0.508,-146.99414
0.51,-145.10011
0.512,-143.09103
0.514,-141.289
0.516,-140.26411
0.518,-139.85179
0.52,-139.5888
0.522,-138.7456
0.524,-137.424
0.526,-135.75047
0.528,-134.0853
0.53,-132.60559
0.532,-131.93515
0.534,-132.15997
0.536,-133.08466
0.538,-134.06094
0.54,-134.96904
0.542,-135.41792
0.544,-135.08594
0.546,-133.52042
0.548,-131.07681
0.55,-128.0802
0.552,-125.07957
0.554,-122.4819
0.556,-121.26728
0.558,-121.83429
0.56,-124.07893
0.562,-127.066444
0.564,-130.16243
0.566,-132.39491
0.568,-133.08466
0.57,-131.78432
0.572,-129.28323
0.574,-126.433105
0.576,-124.07893
0.578,-122.42552
0.58,-121.906815
0.582,-122.274445
0.584,-123.0783
0.586,-123.56524
0.588,-123.95305
0.59,-124.38803
0.592,-125.07957
0.594,-125.745995
0.596,-126.63799
0.598,-127.51651
0.6,-128.08148
0.602,-127.79551
0.604,-127.17351
0.606,-126.7272
0.608,-127.08084
0.61,-128.34093
0.612,-131.04419
0.614,-134.9948
0.616,-139.5888
0.618,-143.62
0.62,-146.75217
0.622,-148.69511
0.624,-149.59517
0.626,-149.58238
0.628,-149.78899
0.63,-150.98564
0.632,-153.59772
0.634,-157.16483
0.636,-161.5513
0.638,-166.08794
0.64,-170.10822
0.642,-172.80759
0.644,-174.57898
0.646,-175.94037
0.648,-177.61299
0.65,-179.85115
0.652,-183.43356
0.654,-188.45581
0.656,-194.62381
0.658,-200.98138
0.66,-207.28493
0.662,-213.0991
0.664,-218.13878
0.666,-221.88623
0.668,-224.7298
0.67,-226.89175
0.672,-228.64546
0.674,-229.88019
0.676,-231.22371
0.678,-232.94336
0.68,-235.1496
0.682,-237.38327
0.684,-239.81285
0.686,-242.27965
0.688,-244.65564
0.69,-246.51091
0.692,-248.28041
0.694,-250.14027
0.696,-252.16042
0.698,-253.82422
0.7,-255.26244
0.702,-256.25708
0.704,-256.66327
0.706,-256.10626
0.708,-255.22652
0.71,-254.45697
0.712,-254.16168
0.714,-254.0927
0.716,-254.59413
0.718,-255.52065
0.72,-256.66327
0.722,-257.45193
0.724,-258.262
0.726,-259.16943
0.728,-260.1655
0.73,-260.66144
0.732,-260.8
0.734,-260.34332
0.736,-259.16486
0.738,-256.9293
0.74,-254.48296
0.742,-252.40683
0.744,-251.15977
0.746,-250.42947
0.748,-250.49333
0.75,-250.91527
0.752,-251.15977
0.754,-250.39453
0.756,-249.10522
0.758,-247.67836
0.76,-246.6569
0.762,-246.04927
0.764,-246.61354
0.766,-248.29013
0.768,-250.65945
0.77,-252.64421
0.772,-254.20932
0.774,-255.06023
0.776,-255.16232
0.778,-254.2635
0.78,-253.29108
0.782,-252.67981
0.784,-252.66074
0.786,-252.7154
0.788,-253.13005
0.79,-253.5658
0.792,-253.66136
0.794,-252.72536
0.796,-251.33975
0.798,-249.83835
0.8,-248.65819
0.802,-247.7442
0.804,-247.95834
0.806,-249.4659
0.808,-252.16042
0.81,-255.22734
0.812,-258.7521
0.814,-262.24374
0.816,-265.1687
0.818,-266.57974
0.82,-266.7781
0.822,-265.853
0.824,-264.16806
0.826,-261.83887
0.828,-260.11795
0.83,-259.6436
0.832,-260.66583
0.834,-262.46637
0.836,-264.93835
0.838,-267.2682
0.84,-268.67093
0.842,-268.19983
0.844,-266.44818
0.846,-264.0002
0.848,-261.66647
0.85,-259.72128
0.852,-259.1826
0.854,-260.13107
0.856,-262.16678
0.858,-264.09848
0.86,-265.75555
0.862,-266.6701
0.864,-266.66965
0.866,-265.42276
0.868,-263.90283
0.87,-262.67596
0.872,-262.16678
0.874,-262.0539
0.876,-262.79724
0.878,-264.13885
0.88,-265.669
0.882,-266.50854
0.884,-266.9722
0.886,-267.11887
0.888,-267.16995
0.89,-266.94226
0.892,-267.24402
0.894,-268.20908
0.896,-269.67154
0.898,-270.72614
0.9,-271.47495
0.902,-271.63666
0.904,-271.17252
0.906,-269.87314
0.908,-268.78564
0.91,-268.45862
0.912,-269.17123
0.914,-270.33902
0.916,-272.0863
0.918,-273.8703
0.92,-275.17505
0.922,-275.25552
0.924,-274.75684
0.926,-274.08258
0.928,-273.6741
0.93,-273.3647
0.932,-273.74472
0.934,-274.63983
0.936,-275.67538
0.938,-276.02127
0.94,-276.03503
0.942,-275.83075
0.944,-275.67538
0.946,-275.3971
0.948,-275.68213
0.95,-276.42386
0.952,-277.17633
0.954,-276.85922
0.956,-275.57956
0.958,-273.3508
0.96,-270.67218
0.962,-267.94855
0.964,-266.72723
0.966,-267.6741
0.968,-270.67218
0.97,-274.26526
0.972,-277.50598
0.974,-278.9375
0.976,-277.67664
0.978,-273.3456
0.98,-267.66107
0.982,-262.3988
0.984,-259.16486
0.986,-258.27362
0.988,-260.0092
0.99,-263.18802
0.992,-266.1693
0.994,-267.0705
0.996,-265.8531
0.998,-262.88873
1.0,-259.16486
1.002,-255.3159
1.004,-252.683
1.006,-251.45099
1.008,-251.15977
1.01,-250.53876
1.012,-249.48466
1.014,-247.77722
1.016,-245.65628
1.018,-243.24854
1.02,-241.89069
1.022,-242.26309
1.024,-244.65564
1.026,-248.40697
1.028,-253.53726
1.03,-259.26486
1.032,-264.66837
1.034,-268.42474
1.036,-270.61148
1.038,-271.22467
1.04,-270.67218
1.042,-269.25302
1.044,-268.24042
1.046,-268.18387
1.048,-269.17123
1.05,-270.64362
1.052,-272.27304
1.054,-273.28128
1.056,-273.17377
1.058,-271.97787
1.06,-270.43588
1.062,-269.06168
1.064,-268.1706
1.066,-267.68912
1.068,-267.55884
1.07,-267.2032
1.072,-266.1693
1.074,-263.88574
1.076,-261.5967
1.078,-260.2916
1.08,-260.66583
1.082,-261.84103
1.084,-263.85516
1.086,-265.74457
1.088,-266.66965
1.09,-265.687
1.092,-263.9884
1.094,-262.66946
1.096,-262.66708
1.098,-263.7025
1.1,-265.90167
1.102,-268.4665
1.104,-270.67218
1.106,-271.72913
1.108,-272.27603
1.11,-272.25372
1.112,-270.67218
1.114,-264.85947
1.116,-252.46812
1.118,-231.02322
1.12,-199.627
1.122,-159.18774
1.124,-113.65359
1.126,-67.17569
1.128,-23.01464
1.13,17.880627
1.132,55.092957
1.134,88.83444
1.136,117.5748
1.138,137.23558
1.14,139.9917
1.142,117.89667
1.144,65.541695
1.146,-16.643204
1.148,-122.589386
1.15,-240.00128
1.152,-353.72504
1.154,-449.1238
1.156,-516.8825
1.158,-553.2562
1.16,-560.3565
1.162,-544.03973
1.164,-512.9948
1.166,-475.15103
1.168,-436.77786
1.17,-401.58228
1.172,-372.28622
1.174,-349.524
1.176,-332.71167
1.178,-320.02866
1.18,-310.27072
1.182,-301.85104
1.184,-293.68683
1.186,-285.0425
1.188,-276.92242
1.19,-270.22095
1.192,-265.669
1.194,-263.00903
1.196,-262.27414
1.198,-262.51443
1.2,-262.66708
1.202,-261.61505
1.204,-259.63858
1.206,-257.12912
1.208,-254.662
1.21,-252.41904
1.212,-250.7867
1.214,-249.75835
1.216,-249.15851
1.218,-248.59488
1.22,-247.99022
1.222,-247.47386
1.224,-247.15723
1.226,-246.74712
1.228,-246.05994
1.23,-244.88893
1.232,-243.15468
1.234,-240.5455
1.236,-238.00499
1.238,-235.94423
1.24,-234.64928
1.242,-233.63675
1.244,-233.56102
1.246,-233.92433
1.248,-234.14896
1.25,-233.438
1.252,-232.53496
1.254,-231.69667
1.256,-231.14705
1.258,-230.53476
1.26,-230.24837
1.262,-229.92114
1.264,-229.14577
1.266,-227.34398
1.268,-225.16072
1.27,-222.96754
1.272,-221.14069
1.274,-219.53632
1.276,-218.56853
1.278,-217.92226
1.28,-217.13814
1.282,-215.50974
1.284,-213.4066
1.286,-211.00993
1.288,-208.63272
1.29,-206.25316
1.292,-204.50839
1.294,-203.37749
1.296,-202.6289
1.298,-201.63374
1.3,-200.60625
1.302,-199.44316
1.304,-198.12604
1.306,-196.38216
1.308,-194.71541
1.31,-193.15085
1.312,-191.6219
1.314,-189.71198
1.316,-187.7699
1.318,-185.74985
1.32,-183.6168
1.322,-181.07617
1.324,-178.63359
1.326,-176.43198
1.328,-174.61108
1.33,-172.98329
1.332,-172.06448
1.334,-171.84012
1.336,-172.10948
1.338,-172.20865
1.34,-172.17952
1.342,-171.70795
1.344,-170.60854
1.346,-168.58078
1.348,-166.28085
1.35,-164.03952
1.352,-162.10312
1.354,-160.23314
1.356,-158.78926
1.358,-157.63237
1.36,-156.59962
1.362,-155.2738
1.364,-154.15648
1.366,-153.40863
1.368,-153.0974
1.37,-152.76051
1.372,-152.58
1.374,-152.27385
1.376,-151.59644
1.378,-150.09988
1.38,-148.38142
1.382,-146.78467
1.384,-145.59262
1.386,-144.50296
1.388,-143.84926
1.39,-143.44478
1.392,-143.09103
1.394,-142.32646
1.396,-141.76132
1.398,-141.755
1.4,-142.59071
1.402,-143.90062
1.404,-145.91339
1.406,-148.28319
1.408,-150.59581
1.41,-152.12949
1.412,-153.24979
1.414,-154.15948
1.416,-155.09866
1.418,-155.78035
1.42,-156.62997
1.422,-157.5978
1.424,-158.60089
1.426,-159.21375
1.428,-160.07373
1.43,-161.58545
1.432,-164.1044
1.434,-167.33607
1.436,-171.57559
1.438,-176.50081
1.44,-181.61554
1.442,-185.99643
1.444,-189.78555
1.446,-193.06403
1.448,-196.12477
1.45,-198.91432
1.452,-202.16577
1.454,-206.09155
1.456,-210.634
1.458,-215.08162
1.46,-219.46521
1.462,-223.52989
1.464,-227.1445
1.466,-229.92227
1.468,-232.46684
1.47,-235.12471
1.472,-238.1515
1.474,-241.1839
1.476,-244.46394
1.478,-247.73936
1.48,-250.65945
1.482,-252.49652
1.484,-253.52432
1.486,-253.94836
1.488,-254.16168
1.49,-254.1972
1.492,-254.88905
1.494,-256.54495
1.496,-259.16486
1.498,-262.01105
1.5,-265.03848
1.502,-267.853
1.504,-270.17188
1.506,-271.4702
1.508,-272.29504
1.51,-272.95227
1.512,-273.6741
1.514,-274.0656
1.516,-274.40906
1.518,-274.51443
1.52,-274.1744
1.522,-272.8406
1.524,-271.0802
1.526,-269.23865
1.528,-267.6703
1.53,-266.1613
1.532,-265.25916
1.534,-264.96252
1.536,-265.1687
1.538,-265.30594
1.54,-265.79794
1.542,-266.6342
1.544,-267.6703
1.546,-268.12766
1.548,-268.14005
1.55,-267.48227
1.552,-266.1693
1.554,-264.09628
1.556,-262.45142
1.558,-261.99582
1.56,-263.16742
1.562,-265.38873
1.564,-268.5996
1.566,-271.9646
1.568,-274.67474
1.57,-275.78943
1.572,-275.9198
1.574,-275.54736
1.576,-275.17505
1.578,-274.5707
1.58,-274.20773
1.582,-273.83026
1.584,-273.17377
1.586,-271.73672
1.588,-270.4602
1.59,-269.95972
1.592,-270.67218
1.594,-272.0776
1.596,-274.2039
1.598,-276.1969
1.6,-277.17633
1.602,-276.16003
1.604,-273.8727
1.606,-271.0665
1.608,-268.67093
1.61,-266.9234
1.612,-266.64078
1.614,-267.5973
1.616,-269.17123
1.618,-270.19052
1.62,-270.73404
1.622,-270.69217
1.624,-270.17188
1.626,-268.8982
1.628,-267.6539
1.63,-266.67972
1.632,-266.1693
1.634,-265.84637
1.636,-266.46274
1.638,-268.1351
1.64,-270.67218
1.642,-273.0789
1.644,-275.1783
1.646,-276.33063
1.648,-276.1757
1.65,-274.37527
1.652,-272.111
1.654,-270.2937
1.656,-269.67154
1.658,-270.06174
1.66,-271.76328
1.662,-274.09702
1.664,-276.1757
1.666,-276.80353
1.668,-276.27933
1.67,-274.87982
1.672,-273.17377
1.674,-271.28586
1.676,-270.1786
1.678,-269.92197
1.68,-270.17188
1.682,-269.87878
1.684,-269.1029
1.686,-267.6525
1.688,-265.669
1.69,-263.12927
1.692,-261.17596
1.694,-260.31534
1.696,-260.66583
1.698,-261.43796
1.7,-262.58112
1.702,-263.47592
1.704,-263.66772
1.706,-262.58444
1.708,-261.07013
1.71,-259.63785
1.712,-258.66455
1.714,-257.72443
1.716,-257.09677
1.718,-256.3677
1.72,-255.16232
1.722,-252.9262
1.724,-250.57373
1.726,-248.77954
1.728,-248.15787
1.73,-248.49586
1.732,-250.17886
1.734,-252.65456
1.736,-255.16232
1.738,-256.58667
1.74,-257.27133
1.742,-257.47247
1.744,-257.6639
1.746,-257.79413
1.748,-258.63657
1.75,-260.07837
1.752,-261.66647
1.754,-262.34167
1.756,-262.24405
1.758,-261.28714
1.76,-259.6652
1.762,-257.31873
1.764,-255.28906
1.766,-254.0103
1.768,-253.66136
1.77,-253.71754
1.772,-254.45021
1.774,-255.54346
1.776,-256.66327
1.778,-257.12195
1.78,-257.41626
1.782,-257.7019
1.784,-258.16425
1.786,-258.46835
1.788,-259.20682
1.79,-260.3362
1.792,-261.66647
1.794,-262.47836
1.796,-263.1577
1.798,-263.7018
1.8,-264.16806
1.802,-264.16522
1.804,-264.3492
1.806,-264.8432
1.808,-265.669
1.81,-266.28775
1.812,-267.14523
1.814,-268.16092
1.816,-269.17123
1.818,-269.4847
1.82,-269.4932
1.822,-269.19354
1.824,-268.67093
1.826,-267.5912
1.828,-266.66525
1.83,-265.9438
1.832,-265.1687
1.834,-263.3301
1.836,-260.41443
1.838,-256.13608
1.84,-250.65945
1.842,-244.241
1.844,-238.58891
1.846,-234.95811
1.848,-234.14896
1.85,-235.73685
1.852,-239.5498
1.854,-244.43347
1.856,-249.15851
1.858,-252.41008
1.86,-254.56427
1.862,-256.08694
1.864,-257.6639
1.866,-259.34146
1.868,-261.79898
1.87,-264.76733
1.872,-267.6703
1.874,-269.52563
1.876,-270.54483
1.878,-270.81696
1.88,-270.67218
1.882,-270.31415
1.884,-270.34808
1.886,-270.716
1.888,-271.17252
1.89,-271.50455
1.892,-271.8795
1.894,-272.25714
1.896,-272.67346
1.898,-273.194
1.9,-274.0779
1.902,-275.05002
1.904,-275.67538
1.906,-275.037
1.908,-273.6546
1.91,-271.77213
1.912,-269.67154
1.914,-266.636
1.916,-263.58
1.918,-260.80014
1.92,-258.66455
1.922,-256.88794
1.924,-256.56512
1.926,-257.93317
1.928,-260.66583
1.93,-263.32172
1.932,-265.415
1.934,-266.3241
1.936,-266.1693
1.938,-265.30087
1.94,-265.34744
1.942,-266.70407
1.944,-268.1706
1.946,-266.32202
1.948,-257.83035
1.95,-239.38026
1.952,-209.63336
1.954,-169.53792
1.956,-123.4564
1.958,-76.076904
1.96,-31.019733
1.962,10.822049
1.964,49.538544
1.966,86.183815
1.968,120.076385
1.97,147.5869
1.972,160.5449
1.974,149.70885
1.976,107.56843
1.978,32.141064
1.98,-72.60868
1.982,-195.42755
1.984,-320.704
1.986,-431.81018
1.988,-516.46796
1.99,-567.7668
1.992,-585.3724
1.994,-574.03107
1.996,-542.873
1.998,-501.3796
2.0,-457.79123
2.002,-417.4604
2.004,-384.02295
2.006,-358.24802
2.008,-339.2158
2.01,-324.70642
2.012,-313.43198
2.014,-304.02097
2.016,-295.6881
2.018,-287.74396
2.02,-280.91196
2.022,-275.5073
2.024,-271.67282
2.026,-268.83276
2.028,-267.22855
2.03,-266.4832
2.032,-266.1693
2.034,-265.49185
2.036,-264.64575
2.038,-263.5355
2.04,-262.16678
2.042,-260.3682
2.044,-258.6936
2.046,-257.65268
2.048,-257.6639
2.05,-258.6298
2.052,-260.34897
2.054,-262.39697
2.056,-264.16806
2.058,-264.81113
2.06,-263.97092
2.062,-261.7579
2.064,-258.66455
2.066,-254.90797
2.068,-251.72615
2.07,-249.58812
2.072,-248.65819
2.074,-248.24557
2.076,-248.96132
2.078,-250.29352
2.08,-251.6601
2.082,-252.1549
2.084,-252.45142
2.086,-252.70772
2.088,-253.16106
2.09,-253.58824
2.092,-254.66722
2.094,-256.20233
2.096,-257.6639
2.098,-257.94183
2.1,-256.97827
2.102,-254.49992
2.104,-250.65945
2.106,-245.67538
2.108,-240.9726
2.11,-237.45941
2.112,-235.64992
2.114,-235.10574
2.116,-235.75607
2.118,-236.73271
2.12,-237.15086
2.122,-236.08012
2.124,-233.97862
2.126,-231.28967
2.128,-228.64546
2.13,-226.23077
2.132,-224.79811
2.134,-224.24951
2.136,-224.1426
2.138,-223.54036
2.14,-222.49722
2.142,-220.84279
2.144,-218.63908
2.146,-215.7551
2.148,-212.9855
2.15,-210.58574
2.152,-208.63272
2.154,-206.69728
2.156,-205.15942
2.158,-203.9745
2.16,-203.12923
2.162,-202.27766
2.164,-201.94763
2.166,-202.12735
2.168,-202.6289
2.17,-202.73903
2.172,-202.58511
2.174,-201.9132
2.176,-200.62762
2.178,-198.47845
2.18,-196.3228
2.182,-194.60895
2.184,-193.62317
2.186,-192.97281
2.188,-192.88821
2.19,-192.93597
2.192,-192.62254
2.194,-191.21512
2.196,-189.17346
2.198,-186.81941
2.2,-184.61745
2.202,-182.58926
2.204,-181.50998
2.206,-181.4344
2.208,-182.11586
2.21,-182.69975
2.212,-183.2645
2.214,-183.58684
2.216,-183.6168
2.218,-183.03613
2.22,-182.59225
2.222,-182.57803
2.224,-183.11649
2.226,-183.66391
2.228,-184.5248
2.23,-185.54468
2.232,-186.61871
2.234,-187.27802
2.236,-188.15086
2.238,-189.42883
2.24,-191.12158
2.242,-192.515
2.244,-193.76279
2.246,-194.6411
2.248,-195.12413
2.25,-194.98645
2.252,-195.2561
2.254,-196.54265
2.256,-199.12668
2.258,-202.27022
2.26,-205.80656
2.262,-208.96475
2.264,-211.13431
2.266,-211.68213
2.268,-211.57088
2.27,-211.74968
2.272,-213.13559
2.274,-215.71495
2.276,-219.85681
2.278,-224.96375
2.28,-230.14641
2.282,-234.12436
2.284,-237.04523
2.286,-239.18451
2.288,-241.15341
2.29,-243.11307
2.292,-245.9819
2.294,-249.9109
2.296,-254.662
2.298,-259.27994
2.3,-263.81372
2.302,-268.1012
2.304,-272.17316
2.306,-275.6855
2.308,-279.29678
2.31,-283.15417
2.312,-287.1827
2.314,-290.6101
2.316,-293.59164
2.318,-295.95734
2.32,-297.6894
2.322,-298.45743
2.324,-299.10165
2.326,-300.083
2.328,-301.69193
2.33,-303.41913
2.332,-305.49915
2.334,-307.56512
2.336,-309.1967
2.338,-309.58713
2.34,-309.22513
2.342,-308.44467
2.344,-307.69574
2.346,-306.8529
2.348,-306.66626
2.35,-307.18744
2.352,-308.19608
2.354,-308.78812
2.356,-309.13748
2.358,-309.10507
2.36,-308.69638
2.362,-307.51505
2.364,-306.34534
2.366,-305.50372
2.368,-305.19415
2.37,-304.942
2.372,-305.25623
2.374,-306.06387
2.376,-307.19543
2.378,-307.89044
2.38,-308.56754
2.382,-309.18265
2.384,-309.69702
2.386,-309.5161
2.388,-309.2803
2.39,-309.13037
2.392,-309.1967
2.394,-309.01746
2.396,-309.33575
2.398,-310.25333
2.4,-311.6983
2.402,-312.8538
2.404,-314.05463
2.406,-315.06235
2.408,-315.70084
2.41,-315.367
2.412,-314.88266
2.414,-314.57846
2.416,-314.7002
2.418,-314.7355
2.42,-315.26733
2.422,-316.15918
2.424,-317.20178
2.426,-317.6395
2.428,-318.08536
2.43,-318.61145
2.432,-319.20306
2.434,-319.12238
2.436,-318.82904
2.438,-318.19952
2.44,-317.20178
2.442,-315.42294
2.444,-313.91364
2.446,-313.2126
2.448,-313.69955
2.45,-314.8778
2.452,-317.16644
2.454,-320.13428
2.456,-323.2056
2.458,-325.29156
2.46,-326.81464
2.462,-327.876
2.464,-328.7091
2.466,-328.95737
2.468,-329.4135
2.47,-330.07416
2.472,-330.7104
2.474,-330.40723
2.476,-329.63412
2.478,-328.47644
2.48,-327.20816
2.482,-325.63507
2.484,-324.82346
2.486,-325.04364
2.488,-326.20752
2.49,-327.3153
2.492,-328.49957
2.494,-329.3588
2.496,-329.70975
2.498,-329.1021
2.5,-328.64966
2.502,-328.91888
2.504,-330.21005
2.506,-331.7956
2.508,-333.76984
2.51,-335.34418
2.512,-335.71356
2.514,-333.82477
2.516,-330.47638
2.518,-326.4233
2.52,-322.7053
2.522,-319.71164
2.524,-318.752
2.526,-319.9314
2.528,-322.7053
2.53,-325.52728
2.532,-328.06842
2.534,-329.6894
2.536,-330.21005
2.538,-329.3494
2.54,-328.49734
2.542,-328.4627
2.544,-329.70975
2.546,-331.55045
2.548,-334.1239
2.55,-336.62598
2.552,-338.21515
2.554,-337.74844
2.556,-335.92847
2.558,-333.31924
2.56,-330.7104
2.562,-328.23828
2.564,-327.06836
2.566,-327.32834
2.568,-328.7091
2.57,-330.02872
2.572,-331.35526
2.574,-332.2081
2.576,-332.21133
2.578,-330.5531
2.58,-328.00903
2.582,-325.0099
2.584,-322.205
2.586,-319.75635
2.588,-319.09366
2.59,-320.65033
2.592,-324.20624
2.594,-328.24832
2.596,-332.1806
2.598,-334.76843
2.6,-335.21326
2.602,-332.90503
2.604,-329.4089
2.606,-326.20334
2.608,-324.70657
2.61,-325.16812
2.612,-328.26328
2.614,-333.2182
2.616,-338.71548
2.618,-342.836
2.62,-345.34964
2.622,-346.0399
2.624,-345.2196
2.626,-342.93552
2.628,-340.5447
2.63,-338.57788
2.632,-337.2145
2.634,-335.7694
2.636,-334.7572
2.638,-334.084
2.64,-333.71228
2.642,-333.0987
2.644,-333.06268
2.646,-333.7666
2.648,-335.21326
2.65,-336.63498
2.652,-338.45917
2.654,-340.42184
2.656,-342.2177
2.658,-342.9899
2.66,-343.33768
2.662,-343.3634
2.664,-343.21835
2.666,-342.46948
2.668,-341.97037
2.67,-341.885
2.672,-342.2177
2.674,-342.2164
2.676,-342.3313
2.678,-342.29266
2.68,-341.71738
2.682,-339.58493
2.684,-336.3253
2.686,-331.94785
2.688,-326.70782
2.69,-320.53293
2.692,-314.8703
2.694,-310.56302
2.696,-308.19608
2.698,-307.34
2.7,-308.45306
2.702,-310.99368
2.704,-314.1999
2.706,-316.73846
2.708,-318.8569
2.71,-320.46805
2.712,-321.70465
2.714,-322.2264
2.716,-323.02286
2.718,-324.33957
2.72,-326.20752
2.722,-327.9142
2.724,-329.89108
2.726,-331.90802
2.728,-333.71228
2.73,-334.71918
2.732,-335.34036
2.734,-335.50073
2.736,-335.21326
2.738,-334.4349
2.74,-333.90024
2.742,-333.80624
2.744,-334.21262
2.746,-334.9478
2.748,-336.19934
2.75,-337.57748
2.752,-338.71548
2.754,-339.01413
2.756,-339.2966
2.758,-339.85867
2.76,-340.71674
2.762,-340.54367
2.764,-339.72784
2.766,-338.05524
2.768,-335.71356
2.77,-332.45755
2.772,-330.11093
2.774,-329.52017
2.776,-330.7104
2.778,-332.02792
2.78,-332.7549
2.782,-331.82974
2.784,-329.20944
2.786,-325.46875
2.788,-323.2623
2.79,-324.11087
2.792,-327.70847
2.794,-330.7797
2.796,-329.61108
2.798,-319.7805
2.8,-298.69
2.802,-266.30524
2.804,-226.96318
2.806,-185.91429
2.808,-147.59389
2.81,-113.17303
2.812,-81.99557
2.814,-50.943676
2.816,-17.51114
2.818,18.233412
2.82,50.505737
2.822,70.43711
2.824,68.04329
2.826,36.16925
2.828,-28.440056
2.83,-121.856606
2.832,-234.14896
2.834,-351.11087
2.836,-459.22757
2.838,-546.67206
2.84,-605.88544
2.842,-633.81934
2.844,-633.4722
2.846,-610.8282
2.848,-573.86505
2.85,-530.35583
2.852,-488.19534
2.854,-452.4224
2.856,-425.27054
2.858,-405.80148
2.86,-392.4856
2.862,-382.4664
2.864,-373.23743
2.866,-362.8728
2.868,-352.02377
2.87,-341.71146
2.872,-333.21198
2.874,-326.86798
2.876,-323.48007
2.878,-322.46146
2.88,-322.7053
2.882,-322.54352
2.884,-321.8094
2.886,-320.29535
2.888,-318.20242
2.89,-315.52557
2.892,-313.117
2.894,-311.32132
2.896,-310.19733
2.898,-309.21762
2.9,-308.39236
2.902,-307.68823
2.904,-307.19543
2.906,-306.75702
2.908,-306.6346
2.91,-306.97226
2.912,-307.69574
2.914,-307.99347
2.916,-307.88748
2.918,-307.00208
2.92,-305.19415
2.922,-301.9959
2.924,-298.87067
2.926,-296.3284
2.928,-294.68747
2.93,-293.40903
2.932,-293.2789
2.934,-293.8906
2.936,-294.68747
2.938,-294.6849
2.94,-294.46954
2.942,-294.10645
2.944,-293.68683
2.946,-292.7219
2.948,-291.78912
2.95,-290.69083
2.952,-289.18396
2.954,-286.68607
2.956,-283.96725
2.958,-281.36484
2.96,-279.1776
2.962,-277.07956
2.964,-275.6119
2.966,-274.5691
2.968,-273.6741
2.97,-272.3054
2.972,-271.08813
2.974,-270.18463
2.976,-269.67154
2.978,-269.00613
2.98,-268.53207
2.982,-267.98383
2.984,-267.16995
2.986,-265.68192
2.988,-264.35452
2.99,-263.4975
2.992,-263.16742
2.994,-262.61816
2.996,-261.85938
2.998,-260.31595
3.0,-257.6639
3.002,-253.65184
3.004,-249.5572
3.006,-246.32649
3.008,-244.65564
3.01,-244.2278
3.012,-245.11777
3.014,-246.42209
3.016,-247.15723
3.018,-246.25435
3.02,-244.28839
3.022,-241.83572
3.024,-239.65245
3.026,-237.85509
3.028,-237.1383
3.03,-237.14525
3.032,-237.15086
3.034,-235.96791
3.036,-233.80542
3.038,-230.84174
3.04,-227.64482
3.042,-224.48367
3.044,-222.52426
3.046,-222.0091
3.048,-222.64163
3.05,-223.26183
3.052,-223.65724
3.054,-223.321
3.056,-222.14131
3.058,-219.96758
3.06,-218.0186
3.062,-216.9771
3.064,-217.13814
3.066,-217.76683
3.068,-218.77086
3.07,-219.40779
3.072,-219.1394
3.074,-217.4244
3.076,-215.44208
3.078,-214.21426
3.08,-214.63654
3.082,-216.5427
3.084,-220.15596
3.086,-224.58076
3.088,-228.64546
3.09,-230.87152
3.092,-231.4618
3.094,-230.79254
3.096,-229.64609
3.098,-228.32281
3.1,-228.00798
3.102,-228.99007
3.104,-231.14705
3.106,-233.56734
3.108,-236.4114
3.11,-239.37852
3.112,-242.15405
3.114,-243.876
3.116,-244.87016
3.118,-245.18585
3.12,-245.15596
3.122,-244.87505
3.124,-245.67752
3.126,-248.23839
3.128,-252.66074
3.13,-257.79407
3.132,-263.079
3.134,-267.4269
3.136,-270.17188
3.138,-270.88998
3.14,-271.06256
3.142,-272.1073
3.144,-275.17505
3.146,-280.06967
3.148,-286.69473
3.15,-293.7465
3.152,-299.69064
3.154,-302.85925
3.156,-303.53043
3.158,-302.4059
3.16,-300.69128
3.162,-299.05322
3.164,-298.82812
3.166,-300.29874
3.168,-303.19287
3.17,-306.40976
3.172,-309.98026
3.174,-313.63208
3.176,-317.20178
3.178,-319.9807
3.18,-322.30197
3.182,-323.95215
3.184,-324.70657
3.186,-323.93573
3.188,-322.3979
3.19,-320.62213
3.192,-319.20306
3.194,-318.06204
3.196,-318.03018
3.198,-319.1556
3.2,-321.20435
3.202,-323.2331
3.204,-325.4134
3.206,-327.4794
3.208,-329.20944
3.21,-329.8848
3.212,-330.0288
3.214,-329.75064
3.216,-329.20944
3.218,-328.0359
3.22,-327.07877
3.222,-326.60184
3.224,-326.70782
3.226,-326.75354
3.228,-327.15536
3.23,-327.71613
3.232,-328.2088
3.234,-327.89462
3.236,-327.4131
3.238,-326.95004
3.24,-326.70782
3.242,-326.257
3.244,-326.3149
3.246,-326.8665
3.248,-327.70847
3.25,-327.95752
3.252,-328.03235
3.254,-327.90994
3.256,-327.70847
3.258,-327.076
3.26,-326.99255
3.262,-327.71603
3.264,-329.20944
3.266,-330.5304
3.268,-331.80518
3.27,-332.50162
3.272,-332.21133
3.274,-330.25433
3.276,-327.6387
3.278,-325.0537
3.28,-323.2056
3.282,-321.9945
3.284,-322.2626
3.286,-323.8402
3.288,-326.20752
3.29,-328.1053
3.292,-329.65753
3.294,-330.56412
3.296,-330.7104
3.298,-329.56015
3.3,-328.0251
3.302,-326.46497
3.304,-325.20688
3.306,-323.92142
3.308,-323.48273
3.31,-323.97256
3.312,-325.20688
3.314,-326.18854
3.316,-327.16672
3.318,-327.8667
3.32,-328.2088
3.322,-327.78333
3.324,-327.6631
3.326,-328.2696
3.328,-329.70975
3.33,-331.0849
3.332,-332.45697
3.334,-333.16626
3.336,-332.71167
3.338,-330.43668
3.34,-327.49832
3.342,-324.7937
3.344,-323.2056
3.346,-322.69183
3.348,-323.97287
3.35,-326.59778
3.352,-329.70975
3.354,-331.7992
3.356,-332.92566
3.358,-332.97147
3.36,-332.21133
3.362,-330.5801
3.364,-329.3247
3.366,-328.86124
3.368,-329.20944
3.37,-329.44803
3.372,-329.80063
3.374,-329.9342
3.376,-329.70975
3.378,-328.6714
3.38,-327.89322
3.382,-327.83847
3.384,-328.7091
3.386,-329.74496
3.388,-331.13834
3.39,-332.30618
3.392,-332.71167
3.394,-331.52298
3.396,-329.59808
3.398,-327.47552
3.4,-325.7072
3.402,-324.0483
3.404,-323.22903
3.406,-323.06732
3.408,-323.2056
3.41,-322.7589
3.412,-322.32968
3.414,-322.08765
3.416,-322.205
3.418,-322.12613
3.42,-322.41907
3.422,-322.87128
3.424,-323.2056
3.426,-322.6654
3.428,-322.01978
3.43,-321.59763
3.432,-321.70465
3.434,-321.8853
3.436,-322.76672
3.438,-324.1501
3.44,-325.7072
3.442,-326.55917
3.444,-327.28348
3.446,-327.97165
3.448,-328.7091
3.45,-328.89804
3.452,-329.0948
3.454,-329.11548
3.456,-328.7091
3.458,-327.1397
3.46,-325.1766
3.462,-323.20535
3.464,-321.70465
3.466,-320.5482
3.468,-320.61966
3.47,-321.83713
3.472,-323.70593
3.474,-324.92365
3.476,-325.44693
3.478,-324.87723
3.48,-323.2056
3.482,-320.30945
3.484,-317.6352
3.486,-316.0704
3.488,-316.20114
3.49,-317.561
3.492,-320.42847
3.494,-324.1007
3.496,-327.70847
3.498,-329.94513
3.5,-331.14548
3.502,-331.44302
3.504,-331.2107
3.506,-330.28064
3.508,-329.63068
3.51,-329.34967
3.512,-329.20944
3.514,-328.23642
3.516,-326.83624
3.518,-325.05746
3.52,-323.2056
3.522,-321.169
3.524,-320.09338
3.526,-320.20514
3.528,-321.20435
3.53,-321.71893
3.532,-321.43423
3.534,-319.5476
3.536,-315.70084
3.538,-309.61615
3.54,-302.95847
3.542,-297.091
3.544,-293.18652
3.546,-291.26678
3.548,-291.85336
3.55,-294.1994
3.552,-297.18906
3.554,-299.22214
3.556,-300.43597
3.558,-300.93094
3.56,-301.19162
3.562,-301.23422
3.564,-302.1905
3.566,-304.24414
3.568,-307.19543
3.57,-310.0694
3.572,-313.09827
3.574,-316.02792
3.576,-318.70276
3.578,-320.60205
3.58,-322.30487
3.582,-323.83167
3.584,-325.20688
3.586,-326.24283
3.588,-327.4621
3.59,-328.7312
3.592,-329.70975
3.594,-329.83426
3.596,-329.12256
3.598,-327.35455
3.6,-324.70657
3.602,-321.54703
3.604,-319.38464
3.606,-319.04797
3.608,-320.704
3.61,-322.8875
3.612,-325.2462
3.614,-326.62863
3.616,-326.20752
3.618,-322.90814
3.62,-318.28864
3.622,-313.74927
3.624,-310.69766
3.626,-309.30496
3.628,-310.41058
3.63,-313.42908
3.632,-317.20178
3.634,-319.8351
3.636,-321.10202
3.638,-320.7922
3.64,-319.20306
3.642,-316.2351
3.644,-312.72525
3.646,-308.18518
3.648,-301.19162
3.65,-289.1384
3.652,-270.7183
3.654,-244.91925
3.656,-212.13495
3.658,-173.68124
3.66,-133.03465
3.662,-93.111374
3.664,-56.03565
3.666,-22.420904
3.668,6.2375817
3.67,28.315569
3.672,40.52578
3.674,38.289783
3.676,14.997487
3.678,-34.007896
3.68,-109.5697
3.682,-206.53188
3.684,-315.52386
3.686,-422.9636
3.688,-514.8275
3.69,-579.62354
3.692,-612.7205
3.694,-615.31824
3.696,-593.8778
3.698,-557.16016
3.7,-515.1918
3.702,-475.2313
3.704,-441.28073
3.706,-413.76605
3.708,-392.2839
3.71,-375.10822
3.712,-360.7295
3.714,-347.83685
3.716,-336.97534
3.718,-328.40555
3.72,-322.205
3.722,-317.5121
3.724,-314.23462
3.726,-311.53156
3.728,-308.69638
3.73,-304.959
3.732,-301.1984
3.734,-298.07358
3.736,-296.18842
3.738,-295.3222
3.74,-295.71194
3.742,-296.75394
3.744,-297.6894
3.746,-297.60907
3.748,-296.7701
3.75,-295.72305
3.752,-295.18777
3.754,-295.3208
3.756,-296.27094
3.758,-297.63208
3.76,-298.69
3.762,-298.35684
3.764,-296.6453
3.766,-293.84622
3.768,-290.68494
3.77,-287.4035
3.772,-285.49316
3.774,-285.06998
3.776,-285.68173
3.778,-285.9259
3.78,-286.00415
3.782,-285.3399
3.784,-283.68048
3.786,-280.67148
3.788,-277.63885
3.79,-275.19843
3.792,-273.6741
3.794,-272.4951
3.796,-271.92847
3.798,-271.4621
3.8,-270.67218
3.802,-269.00894
3.804,-267.3852
3.806,-266.3196
3.808,-266.1693
3.81,-266.4689
3.812,-267.42953
3.814,-268.4971
3.816,-269.17123
3.818,-268.83618
3.82,-268.33606
3.822,-268.17615
3.824,-268.67093
3.826,-269.24423
3.828,-269.86334
3.83,-269.72394
3.832,-268.1706
3.834,-264.66144
3.836,-260.3682
3.838,-256.36984
3.84,-253.66136
3.842,-252.26302
3.844,-252.47847
3.846,-253.46536
3.848,-254.16168
3.85,-253.37943
3.852,-251.56688
3.854,-249.24362
3.856,-247.15723
3.858,-245.4505
3.86,-244.8151
3.862,-244.93057
3.864,-245.15596
3.866,-244.44102
3.868,-243.03899
3.87,-241.02707
3.872,-238.65182
3.874,-235.72823
3.876,-232.98225
3.878,-230.56905
3.88,-228.64546
3.882,-227.03378
3.884,-226.63538
3.886,-227.72229
3.888,-230.14641
3.89,-232.7844
3.892,-235.12898
3.894,-236.14005
3.896,-235.1496
3.898,-231.75458
3.9,-227.33992
3.902,-223.23428
3.904,-220.64037
3.906,-219.69481
3.908,-220.74959
3.91,-222.95706
3.912,-225.14323
3.914,-225.84155
3.916,-225.22812
3.918,-223.60426
3.92,-221.641
3.922,-219.546
3.924,-218.32414
3.926,-218.09885
3.928,-218.63908
3.93,-219.08018
3.932,-219.72324
3.934,-220.55319
3.936,-221.641
3.938,-222.52504
3.94,-223.7269
3.942,-225.16057
3.944,-226.64418
3.946,-227.50053
3.948,-228.26305
3.95,-229.0929
3.952,-230.14641
3.954,-230.97496
3.956,-232.11325
3.958,-233.53377
3.96,-235.1496
3.962,-236.38065
3.964,-237.75537
3.966,-239.3527
3.968,-241.15341
3.97,-242.48962
3.972,-243.71794
3.974,-244.76393
3.976,-245.65628
3.978,-246.05872
3.98,-246.89964
3.982,-248.66476
3.984,-251.6601
3.986,-255.36336
3.988,-259.96976
3.99,-264.95758
3.992,-269.67154
3.994,-273.02637
3.996,-275.30215
3.998,-276.69476
4.0,-277.67664
4.002,-278.3142
4.004,-279.64566
4.006,-281.97165
4.008,-285.18143
4.01,-288.29773
4.012,-291.2903
4.014,-293.79144
4.016,-295.6881
4.018,-296.64465
4.02,-297.61288
4.022,-299.06934
4.024,-301.19162
4.026,-303.2041
4.028,-305.08237
4.03,-306.2267
4.032,-306.1948
4.034,-304.43472
4.036,-302.0144
4.038,-299.92505
4.04,-299.19034
4.042,-299.96622
4.044,-302.90787
4.046,-307.51035
4.048,-312.6989
4.05,-316.64923
4.052,-318.8782
4.054,-318.98007
4.056,-317.20178
4.058,-313.79355
4.06,-310.40005
4.062,-308.03323
4.064,-307.19543
4.066,-307.21027
4.068,-308.06674
4.07,-309.0772
4.072,-309.69702
4.074,-309.23413
4.076,-308.6005
4.078,-308.4217
4.08,-309.1967
4.082,-310.47888
4.084,-312.55325
4.086,-314.84335
4.088,-316.70148
4.09,-317.17017
4.092,-316.91318
4.094,-316.4066
4.096,-316.20114
4.098,-316.08234
4.1,-316.69373
4.102,-317.74283
4.104,-318.70276
4.106,-318.5182
4.108,-317.67145
4.11,-316.4165
4.112,-315.20053
4.114,-313.8958
4.116,-313.41623
4.118,-313.78293
4.12,-314.7002
4.122,-315.1782
4.124,-315.54886
4.126,-315.8163
4.128,-316.20114
4.13,-316.46844
4.132,-317.57144
4.134,-319.59744
4.136,-322.205
4.138,-324.11954
4.14,-325.2202
4.142,-324.96475
4.144,-323.2056
4.146,-319.755
4.148,-316.1128
4.15,-313.33713
4.152,-312.1986
4.154,-312.32172
4.156,-313.94702
4.158,-316.24377
4.16,-318.20242
4.162,-318.4834
4.164,-317.53906
4.166,-315.8346
4.168,-314.1999
4.17,-312.93967
4.172,-313.30075
4.174,-315.3916
4.176,-318.70276
4.178,-321.74216
4.18,-324.20667
4.182,-325.4433
4.184,-325.20688
4.186,-323.13297
4.188,-320.47754
4.19,-317.9871
4.192,-316.20114
4.194,-314.7449
4.196,-314.1772
4.198,-314.26105
4.2,-314.7002
4.202,-314.74985
4.204,-315.08563
4.206,-315.88226
4.208,-317.20178
4.21,-318.30984
4.212,-319.5199
4.214,-320.4371
4.216,-320.704
4.218,-319.63394
4.22,-318.1461
4.222,-316.812
4.224,-316.20114
4.226,-316.08063
4.228,-317.09872
4.23,-318.87704
4.232,-320.704
4.234,-321.2563
4.236,-320.65796
4.238,-318.8571
4.24,-316.20114
4.242,-312.77847
4.244,-310.01596
4.246,-308.57318
4.248,-308.69638
4.25,-309.6156
4.252,-311.50766
4.254,-313.8528
4.256,-316.20114
4.258,-317.74146
4.26,-319.1351
4.262,-320.48563
4.264,-321.70465
4.266,-321.8658
4.268,-321.20175
4.27,-319.45212
4.272,-316.70148
4.274,-312.9464
4.276,-309.83514
4.278,-308.40967
4.28,-309.1967
4.282,-311.36716
4.284,-314.58414
4.286,-317.56552
4.288,-319.20306
4.29,-318.52026
4.292,-316.59705
4.294,-314.4851
4.296,-313.19925
4.298,-312.65857
4.3,-313.19244
4.302,-313.90097
4.304,-313.69955
4.306,-311.3798
4.308,-307.742
4.31,-303.75482
4.312,-300.69128
4.314,-299.0304
4.316,-299.8613
4.318,-302.8908
4.32,-307.19543
4.322,-311.07623
4.324,-314.3083
4.326,-316.5117
4.328,-317.70212
4.33,-317.58908
4.332,-317.2166
4.334,-316.9971
4.336,-317.20178
4.338,-317.4169
4.34,-318.3747
4.342,-320.06125
4.344,-322.205
4.346,-323.7148
4.348,-324.6253
4.35,-324.40207
4.352,-322.7053
4.354,-318.9816
4.356,-314.3353
4.358,-309.51047
4.36,-305.19415
4.362,-301.23148
4.364,-298.33997
4.366,-296.30508
4.368,-294.68747
4.37,-292.49484
4.372,-290.24316
4.374,-288.16083
4.376,-286.68237
4.378,-285.73166
4.38,-286.3666
4.382,-288.76218
4.384,-292.6862
4.386,-296.9992
4.388,-301.65656
4.39,-306.0456
4.392,-309.69702
4.394,-311.84103
4.396,-313.1869
4.398,-314.04236
4.4,-314.7002
4.402,-314.85248
4.404,-315.0884
4.406,-315.27856
4.408,-315.20053
4.41,-314.39813
4.412,-313.35535
4.414,-312.20654
4.416,-311.19797
4.418,-310.50327
4.42,-310.7638
4.422,-311.93555
4.424,-313.69955
4.426,-315.3545
4.428,-316.94797
4.43,-318.13205
4.432,-318.70276
4.434,-317.96317
4.436,-317.03342
4.438,-316.48694
4.44,-316.70148
4.442,-316.74515
4.444,-317.19684
4.446,-317.77435
4.448,-318.20242
4.45,-317.62445
4.452,-316.94092
4.454,-316.54703
4.456,-316.70148
4.458,-316.7493
4.46,-317.05658
4.462,-317.30063
4.464,-317.20178
4.466,-316.04465
4.468,-314.38147
4.47,-311.90964
4.472,-307.69574
4.474,-299.58887
4.476,-286.39697
4.478,-266.7198
4.48,-240.15277
4.482,-207.06216
4.484,-170.158
4.486,-131.95995
4.488,-94.56016
4.49,-58.70704
4.492,-25.9288
4.494,2.398794
4.496,23.51496
4.498,33.371223
4.5,25.453657
4.502,-5.740205
4.504,-63.040104
4.506,-144.23433
4.508,-243.15845
4.51,-348.82785
4.512,-448.2852
4.514,-529.0362
4.516,-583.4691
4.518,-608.5471
4.52,-606.38574
4.522,-582.4779
4.524,-545.4935
4.526,-503.46
4.528,-462.7944
4.53,-427.04254
4.532,-398.6056
4.534,-377.42456
4.536,-362.23044
4.538,-350.7484
4.54,-342.0001
4.542,-334.8613
4.544,-328.7091
4.546,-322.83362
4.548,-317.96506
4.55,-314.2643
4.552,-311.6983
4.554,-309.51144
4.556,-308.00653
4.558,-306.94812
4.56,-306.1948
4.562,-305.2654
4.564,-304.77576
4.566,-304.80286
4.568,-305.19415
4.57,-305.1786
4.572,-304.64252
4.574,-303.32544
4.576,-301.19162
4.578,-298.15982
4.58,-294.92297
4.582,-292.2244
4.584,-290.68494
4.586,-290.21042
4.588,-290.9348
4.59,-292.457
4.592,-294.18716
4.594,-294.95938
4.596,-295.1266
4.598,-294.51764
4.6,-293.18652
4.602,-290.7465
4.604,-288.55203
4.606,-286.85492
4.608,-285.68173
4.61,-284.38257
4.612,-283.63754
4.614,-283.3069
4.616,-283.18015
4.618,-282.55878
4.62,-281.97034
4.622,-281.35883
4.624,-280.67856
4.626,-279.4515
4.628,-278.34784
4.63,-277.43408
4.632,-276.67603
4.634,-275.49707
4.636,-274.38333
4.638,-273.28326
4.64,-272.17316
4.642,-270.6475
4.644,-269.41043
4.646,-268.59082
4.648,-268.1706
4.65,-267.51898
4.652,-266.92764
4.654,-266.07962
4.656,-264.66837
4.658,-262.0939
4.66,-259.04465
4.662,-255.90356
4.664,-253.16106
4.666,-250.85701
4.668,-249.8752
4.67,-250.26196
4.672,-251.6601
4.674,-252.96391
4.676,-253.9962
4.678,-254.16801
4.68,-253.16106
4.682,-250.59543
4.684,-247.44691
4.686,-244.30774
4.688,-241.65373
4.69,-239.27539
4.692,-237.69751
4.694,-236.73947
4.696,-236.15022
4.698,-235.33305
4.7,-234.88103
4.702,-234.96341
4.704,-235.64992
4.706,-236.34259
4.708,-237.23094
4.71,-237.83147
4.712,-237.65118
4.714,-235.96577
4.716,-233.45268
4.718,-230.6275
4.72,-228.14514
4.722,-226.12245
4.724,-225.39984
4.726,-225.90248
4.728,-227.1445
4.73,-227.97014
4.732,-228.31006
4.734,-227.85982
4.736,-226.64418
4.738,-224.53407
4.74,-222.64087
4.742,-221.56195
4.744,-221.641
4.746,-222.3873
4.748,-224.0062
4.75,-225.97154
4.752,-227.64482
4.754,-227.99391
4.756,-227.34843
4.758,-225.90887
4.76,-224.1426
4.762,-222.1393
4.764,-221.01982
4.766,-221.1794
4.768,-222.64163
4.77,-224.59198
4.772,-227.0925
4.774,-229.71835
4.776,-232.14769
4.778,-233.74197
4.78,-235.12787
4.782,-236.54807
4.784,-238.1515
4.786,-239.38687
4.788,-240.6063
4.79,-241.59769
4.792,-242.15405
4.794,-241.69775
4.796,-240.97551
4.798,-240.46034
4.8,-240.65309
4.802,-241.40141
4.804,-243.36525
4.806,-246.4259
4.808,-250.15913
4.81,-253.4788
4.812,-256.42285
4.814,-258.7962
4.816,-260.66583
4.818,-261.82477
4.82,-263.26025
4.822,-265.46075
4.824,-268.67093
4.826,-272.29404
4.828,-276.49826
4.83,-280.80905
4.832,-284.6811
4.834,-287.15247
4.836,-288.57727
4.838,-289.13187
4.84,-289.18396
4.842,-288.66718
4.844,-288.54776
4.846,-289.18536
4.848,-290.68494
4.85,-292.3938
4.852,-294.5616
4.854,-296.92062
4.856,-299.19034
4.858,-300.6313
4.86,-301.7028
4.862,-302.5093
4.864,-303.19287
4.866,-303.36255
4.868,-303.6929
4.87,-304.3072
4.872,-305.19415
4.874,-305.69168
4.876,-306.18533
4.878,-306.5603
4.88,-306.6951
4.882,-305.98627
4.884,-305.02615
4.886,-304.01923
4.888,-303.19287
4.89,-302.22546
4.892,-301.8508
4.894,-302.19345
4.896,-303.19287
4.898,-304.08908
4.9,-305.1854
4.902,-306.27625
4.904,-307.19543
4.906,-307.3322
4.908,-307.34454
4.91,-307.42352
4.912,-307.69574
4.914,-307.62222
4.916,-307.7453
4.918,-307.98218
4.92,-308.19608
4.922,-307.72552
4.924,-307.20895
4.926,-306.81357
4.928,-306.6951
4.93,-306.3931
4.932,-306.56476
4.934,-307.20746
4.936,-308.19608
4.938,-308.7945
4.94,-309.50427
4.942,-310.3095
4.944,-311.19797
4.946,-311.59125
4.948,-312.09778
4.95,-312.68353
4.952,-313.19925
4.954,-312.88373
4.956,-312.23932
4.958,-311.29926
4.96,-310.19733
4.962,-308.61356
4.964,-307.5006
4.966,-307.16528
4.968,-307.69574
4.97,-308.37473
4.972,-309.50974
4.974,-310.73883
4.976,-311.6983
4.978,-311.61072
4.98,-311.1382
4.982,-310.5599
4.984,-310.19733
4.986,-309.74857
4.988,-309.97833
4.99,-310.8716
4.992,-312.1986
4.994,-313.06467
4.996,-313.83337
4.998,-314.38962
5.0,-314.7002
5.002,-314.25043
5.004,-313.78244
5.006,-313.4265
5.008,-313.19925
5.01,-312.4804
5.012,-311.82758
5.014,-311.23456
5.016,-310.69766
5.018,-309.70114
5.02,-308.96692
5.022,-308.6244
5.024,-308.69638
5.026,-308.55237
5.028,-308.68488
5.03,-308.95694
5.032,-309.1967
5.034,-308.73312
5.036,-308.2186
5.038,-307.8177
5.04,-307.69574
5.042,-307.41412
5.044,-307.6451
5.046,-308.32407
5.048,-309.1967
5.05,-309.36264
5.052,-309.18372
5.054,-308.59424
5.056,-307.69574
5.058,-306.21283
5.06,-305.1716
5.062,-304.95392
5.064,-305.69446
5.066,-306.68518
5.068,-308.1718
5.07,-309.6767
5.072,-310.69766
5.074,-310.35907
5.076,-309.228
5.078,-307.5504
5.08,-305.69446
5.082,-303.52118
5.084,-301.9338
5.086,-301.04327
5.088,-300.69128
5.09,-300.04547
5.092,-299.41028
5.094,-298.62817
5.096,-297.6894
5.098,-296.24292
5.1,-295.19144
5.102,-294.81805
5.104,-295.18777
5.106,-295.60703
5.108,-296.4042
5.11,-297.32193
5.112,-298.1897
5.114,-298.484
5.116,-299.03568
5.118,-300.09735
5.12,-301.69193
5.122,-302.99677
5.124,-304.14444
5.126,-304.64972
5.128,-304.1935
5.13,-302.29187
5.132,-300.0451
5.134,-298.16498
5.136,-297.18906
5.138,-296.69656
5.14,-296.93552
5.142,-297.20374
5.144,-296.68875
5.146,-294.3035
5.148,-290.63907
5.15,-286.1934
5.152,-281.6792
5.154,-277.2081
5.156,-273.79965
5.158,-271.53192
5.16,-270.17188
5.162,-268.8622
5.164,-268.00925
5.166,-267.59845
5.168,-267.6703
5.17,-267.71848
5.172,-268.34366
5.174,-269.51944
5.176,-271.17252
5.178,-272.74432
5.18,-274.90067
5.182,-277.7368
5.184,-281.17886
5.186,-284.43085
5.188,-287.63547
5.19,-290.3397
5.192,-292.18588
5.194,-292.6878
5.196,-292.54794
5.198,-292.11163
5.2,-291.68555
5.202,-291.25186
5.204,-291.10202
5.206,-290.8753
5.208,-290.1846
5.21,-288.85654
5.212,-287.36993
5.214,-286.02606
5.216,-285.18143
5.218,-284.88498
5.22,-285.72787
5.222,-287.51294
5.224,-289.6843
5.226,-290.72287
5.228,-290.92944
5.23,-290.31335
5.232,-289.18396
5.234,-287.08417
5.236,-285.34604
5.238,-284.4809
5.24,-284.6811
5.242,-285.09586
5.244,-286.04883
5.246,-287.1947
5.248,-288.18332
5.25,-288.18155
5.252,-287.70322
5.254,-286.84677
5.256,-285.68173
5.258,-283.5677
5.26,-280.59708
5.262,-275.8062
5.264,-267.6703
5.266,-253.8867
5.268,-233.45128
5.27,-205.58531
5.272,-170.60854
5.274,-129.49931
5.276,-85.16614
5.278,-40.217327
5.28,3.0019097
5.282,42.917732
5.284,76.67916
5.286,101.07631
5.288,111.57098
5.29,103.03993
5.292,69.46959
5.294,7.5969667
5.296,-81.55188
5.298,-191.07141
5.3,-310.1806
5.302,-424.72098
5.304,-520.83136
5.306,-587.7265
5.308,-621.42883
5.31,-623.6237
5.312,-600.88226
5.314,-561.8507
5.316,-516.2186
5.318,-471.221
5.32,-431.27435
5.322,-397.69647
5.324,-370.9833
5.326,-350.11575
5.328,-333.71228
5.33,-319.9698
5.332,-308.37854
5.334,-298.23148
5.336,-289.18396
5.338,-280.83905
5.34,-274.13336
5.342,-269.52554
5.344,-267.16995
5.346,-266.2942
5.348,-266.64493
5.35,-267.23724
5.352,-267.16995
5.354,-265.59564
5.356,-263.0402
5.358,-260.1432
5.36,-257.6639
5.362,-255.88783
5.364,-255.17061
5.366,-255.39594
5.368,-256.16296
5.37,-256.74374
5.372,-256.77515
5.374,-256.20248
5.376,-255.16232
5.378,-253.50764
5.38,-251.63498
5.382,-249.66293
5.384,-247.65755
5.386,-245.12405
5.388,-242.97981
5.39,-241.3008
5.392,-240.15277
5.394,-239.0598
5.396,-239.0611
5.398,-240.05043
5.4,-241.65373
5.402,-242.88611
5.404,-243.9767
5.406,-244.50407
5.408,-244.15532
5.41,-242.42363
5.412,-240.08476
5.414,-237.52292
5.416,-235.1496
5.418,-232.90877
5.42,-231.50742
5.422,-230.87585
5.424,-230.64673
5.426,-229.91069
5.428,-228.69315
5.43,-226.75342
5.432,-224.1426
5.434,-220.85455
5.436,-217.98402
5.438,-216.13599
5.44,-215.63718
5.442,-216.05452
5.444,-217.41707
5.446,-219.03252
5.448,-220.14005
5.45,-219.82042
5.452,-218.36476
5.454,-215.9883
5.456,-213.13559
5.458,-209.96062
5.46,-207.37312
5.462,-205.6097
5.464,-204.63017
5.466,-203.84244
5.468,-203.42027
5.47,-203.09691
5.472,-202.6289
5.474,-201.48503
5.476,-200.06227
5.478,-198.41054
5.48,-196.62509
5.482,-194.48795
5.484,-192.66107
5.486,-191.3446
5.488,-190.62126
5.49,-190.06662
5.492,-190.01207
5.494,-190.2729
5.496,-190.62126
5.498,-190.49458
5.5,-190.27301
5.502,-189.9774
5.504,-189.62064
5.506,-188.7967
5.508,-187.91133
5.51,-186.8929
5.512,-185.61809
5.514,-183.59506
5.516,-181.29495
5.518,-178.88737
5.52,-176.61235
5.522,-174.35532
5.524,-172.83372
5.526,-172.24986
5.528,-172.6098
5.53,-173.31833
5.532,-174.56647
5.534,-176.08505
5.536,-177.61299
5.538,-178.53844
5.54,-179.28519
5.542,-179.94708
5.544,-180.6149
5.546,-180.90294
5.548,-181.30386
5.55,-181.87105
5.552,-182.61618
5.554,-183.10547
5.556,-183.85942
5.558,-185.00789
5.56,-186.61871
5.562,-188.21416
5.564,-190.12617
5.566,-192.18327
5.568,-194.12349
5.57,-195.23918
5.572,-195.88739
5.574,-196.23773
5.576,-196.62509
5.578,-197.00441
5.58,-198.2113
5.582,-200.46666
5.584,-203.62955
5.586,-206.75755
5.588,-209.67422
5.59,-211.87857
5.592,-213.13559
5.594,-213.15176
5.596,-212.95592
5.598,-213.38254
5.6,-215.13686
5.602,-218.09009
5.604,-222.53487
5.606,-227.96936
5.608,-233.64864
5.61,-238.41557
5.612,-242.28596
5.614,-245.27472
5.616,-247.65755
5.618,-249.34651
5.62,-251.08643
5.622,-253.04959
5.624,-255.16232
5.626,-256.73486
5.628,-258.0028
5.63,-258.9417
5.632,-259.6652
5.634,-259.9388
5.636,-260.5156
5.638,-261.7123
5.64,-263.66772
5.642,-265.83463
5.644,-268.4273
5.646,-271.15515
5.648,-273.6741
5.65,-275.21695
5.652,-276.12967
5.654,-276.53616
5.656,-276.67603
5.658,-276.35757
5.66,-276.31714
5.662,-276.75894
5.664,-277.67664
5.666,-278.39542
5.668,-279.111
5.67,-279.59726
5.672,-279.67792
5.674,-278.80954
5.676,-277.5893
5.678,-276.28836
5.68,-275.17505
5.682,-273.96777
5.684,-273.28833
5.686,-273.21072
5.688,-273.6741
5.69,-274.03934
5.692,-274.69327
5.694,-275.58725
5.696,-276.67603
5.698,-277.4238
5.7,-278.34808
5.702,-279.45645
5.704,-280.67856
5.706,-281.3936
5.708,-282.05405
5.71,-282.64972
5.712,-283.18015
5.714,-283.1644
5.716,-283.245
5.718,-283.56274
5.72,-284.1808
5.722,-284.56235
5.724,-285.18735
5.726,-285.95508
5.728,-286.68237
5.73,-286.6621
5.732,-286.35913
5.734,-285.82367
5.736,-285.18143
5.738,-284.10416
5.74,-283.39676
5.742,-283.2551
5.744,-283.68048
5.746,-283.97055
5.748,-284.44394
5.75,-284.89313
5.752,-285.18143
5.754,-284.80322
5.756,-284.52383
5.758,-284.61
5.76,-285.18143
5.762,-285.63242
5.764,-286.25162
5.766,-286.70547
5.768,-286.68237
5.77,-285.55734
5.772,-284.07132
5.774,-282.64148
5.776,-281.6792
5.778,-280.9332
5.78,-281.03354
5.782,-281.8702
5.784,-283.18015
5.786,-284.18536
5.788,-285.30573
5.79,-286.50058
5.792,-287.683
5.794,-288.15747
5.796,-288.30392
5.798,-287.98926
5.8,-287.1827
5.802,-285.53055
5.804,-284.0175
5.806,-283.135
5.808,-283.18015
5.81,-283.6028
5.812,-284.6959
5.814,-286.03253
5.816,-287.1827
5.818,-287.39548
5.82,-287.34985
5.822,-287.363
5.824,-287.683
5.826,-287.80466
5.828,-288.04666
5.83,-287.98822
5.832,-287.1827
5.834,-284.93558
5.836,-282.01822
5.838,-279.02673
5.84,-276.67603
5.842,-275.0764
5.844,-275.0564
5.846,-276.45657
5.848,-278.67728
5.85,-280.427
5.852,-281.58643
5.854,-281.82043
5.856,-281.17886
5.858,-279.58005
5.86,-278.24875
5.862,-277.83585
5.864,-278.67728
5.866,-280.191
5.868,-282.55994
5.87,-285.2419
5.872,-287.683
5.874,-289.01318
5.876,-289.78656
5.878,-290.24915
5.88,-290.68494
5.882,-290.76614
5.884,-291.11545
5.886,-291.6527
5.888,-292.18588
5.89,-292.03268
5.892,-291.72095
5.894,-291.2909
5.896,-290.68494
5.898,-289.17252
5.9,-287.0146
5.902,-283.9105
5.904,-279.67792
5.906,-273.9224
5.908,-267.7322
5.91,-261.8947
5.912,-257.1636
5.914,-253.53435
5.916,-251.73972
5.918,-251.59933
5.92,-252.66074
5.922,-253.92188
5.924,-255.63248
5.926,-257.71124
5.928,-260.1655
5.93,-262.47995
5.932,-265.17923
5.934,-268.14948
5.936,-271.17252
5.938,-273.5172
5.94,-275.63776
5.942,-277.5301
5.944,-279.1776
5.946,-280.09442
5.948,-280.70404
5.95,-280.91492
5.952,-280.67856
5.954,-279.8666
5.956,-279.0766
5.958,-278.48056
5.96,-278.17697
5.962,-278.14658
5.964,-278.59235
5.966,-279.2119
5.968,-279.67792
5.97,-279.69476
5.972,-279.65817
5.974,-279.64273
5.976,-279.67792
5.978,-279.05328
5.98,-278.52353
5.982,-278.22906
5.984,-278.17697
5.986,-277.29376
5.988,-276.28018
5.99,-275.2981
5.992,-274.67474
5.994,-274.14658
5.996,-274.82114
5.998,-276.93896
6.0,-280.17825
6.002,-283.10434
6.004,-285.24954
6.006,-285.94012
6.008,-285.18143
6.01,-283.16794
6.012,-281.40787
6.014,-280.26422
6.016,-278.67728
6.018,-273.55392
6.02,-262.0642
6.022,-241.40408
6.024,-210.634
6.026,-170.85971
6.028,-126.32296
6.03,-81.32623
6.032,-39.024826
6.034,-0.016081586
6.036,35.62969
6.038,68.26524
6.04,96.06111
6.042,114.18553
6.044,113.7574
6.046,85.93252
6.048,25.015915
6.05,-67.89146
6.052,-185.14455
6.054,-312.2331
6.056,-431.7747
6.058,-527.53296
6.06,-589.80774
6.062,-615.74457
6.064,-609.3877
6.066,-578.9704
6.068,-535.4259
6.07,-488.13382
6.072,-443.78232
6.074,-405.5269
6.076,-375.01404
6.078,-351.70895
6.08,-334.21262
6.082,-320.43326
6.084,-309.47452
6.086,-300.27637
6.088,-292.18588
6.09,-284.51892
6.092,-277.96036
6.094,-272.79468
6.096,-269.17123
6.098,-266.54208
6.1,-265.16196
6.102,-264.66132
6.104,-264.66837
6.106,-264.51212
6.108,-264.55963
6.11,-264.81055
6.112,-265.1687
6.114,-265.1141
6.116,-264.66525
6.118,-263.8014
6.12,-262.66708
6.122,-261.31503
6.124,-260.14853
6.126,-259.5515
6.128,-259.6652
6.13,-260.0136
6.132,-260.2796
6.134,-260.06876
6.136,-259.16486
6.138,-257.10593
6.14,-254.91982
6.142,-253.00487
6.144,-251.6601
6.146,-250.40135
6.148,-250.04588
6.15,-250.15869
6.152,-250.15913
6.154,-249.1326
6.156,-247.74701
6.158,-246.18091
6.16,-244.65564
6.162,-242.88593
6.164,-241.51059
6.166,-240.46939
6.168,-239.65245
6.17,-238.6438
6.172,-238.1255
6.174,-238.2908
6.176,-239.15215
6.178,-240.05154
6.18,-240.98705
6.182,-241.35883
6.184,-240.65309
6.186,-238.30101
6.188,-235.04347
6.19,-231.45467
6.192,-228.14514
6.194,-225.16307
6.196,-223.13622
6.198,-221.91248
6.2,-221.14069
6.202,-220.1084
6.204,-219.1527
6.206,-218.3072
6.208,-217.63846
6.21,-216.77226
6.212,-216.0645
6.214,-215.28099
6.216,-214.13623
6.218,-212.09462
6.22,-209.74359
6.222,-207.442
6.224,-205.63081
6.226,-204.29778
6.228,-204.0843
6.23,-204.85257
6.232,-206.13113
6.234,-206.90015
6.236,-207.06425
6.238,-206.30974
6.24,-204.63017
6.242,-201.95967
6.244,-199.3132
6.246,-197.25935
6.248,-196.12477
6.25,-195.49686
6.252,-195.53346
6.254,-195.74971
6.256,-195.62445
6.258,-194.41396
6.26,-192.5951
6.262,-190.5049
6.264,-188.62
6.266,-186.97266
6.268,-186.31258
6.27,-186.63809
6.272,-187.61935
6.274,-188.31451
6.276,-188.7053
6.278,-188.49911
6.28,-187.61935
6.282,-185.80034
6.284,-183.88583
6.286,-182.3608
6.288,-181.61554
6.29,-181.42328
6.292,-182.29753
6.294,-184.1292
6.296,-186.61871
6.298,-188.90433
6.3,-191.078
6.302,-192.87688
6.304,-194.12349
6.306,-194.3154
6.308,-194.02296
6.31,-193.52122
6.312,-193.12286
6.314,-192.66682
6.316,-192.94191
6.318,-194.22968
6.32,-196.62509
6.322,-199.5262
6.324,-203.10394
6.326,-206.96454
6.328,-210.634
6.33,-213.21478
6.332,-214.9759
6.334,-216.02194
6.336,-216.63782
6.338,-216.7256
6.34,-217.18239
6.342,-218.41533
6.344,-220.64037
6.346,-223.36653
6.348,-226.85434
6.35,-230.7764
6.352,-234.64928
6.354,-237.49434
6.356,-239.47295
6.358,-240.69873
6.36,-241.65373
6.362,-242.59424
6.364,-244.73235
6.366,-248.5058
6.368,-253.66136
6.37,-258.75677
6.372,-262.95465
6.374,-265.21066
6.376,-265.1687
6.378,-262.9485
6.38,-260.45526
6.382,-259.44785
6.384,-261.16614
6.386,-265.29358
6.388,-271.34558
6.39,-277.69507
6.392,-282.67984
6.394,-284.84335
6.396,-284.7716
6.398,-283.57205
6.4,-282.67984
6.402,-282.6982
6.404,-284.42563
6.406,-287.41364
6.408,-290.68494
6.41,-292.76797
6.412,-293.68283
6.414,-293.62732
6.416,-293.18652
6.418,-292.4659
6.42,-292.30582
6.422,-292.6745
6.424,-293.18652
6.426,-292.87958
6.428,-292.07538
6.43,-291.01257
6.432,-290.1846
6.434,-289.60666
6.436,-290.1818
6.438,-291.98682
6.44,-294.68747
6.442,-297.15628
6.444,-299.30396
6.446,-300.71072
6.448,-301.19162
6.45,-300.30994
6.452,-298.95868
6.454,-297.62354
6.456,-296.68875
6.458,-295.79468
6.46,-295.48132
6.462,-295.5592
6.464,-295.6881
6.466,-295.00266
6.468,-293.9541
6.47,-292.72824
6.472,-291.68555
6.474,-290.70184
6.476,-290.74033
6.478,-291.96927
6.48,-294.18716
6.482,-296.33557
6.484,-298.41345
6.486,-299.95145
6.488,-300.69128
6.49,-300.13168
6.492,-299.25888
6.494,-298.63174
6.496,-298.69
6.498,-299.05127
6.5,-300.22977
6.502,-301.92688
6.504,-303.6932
6.506,-304.5559
6.508,-304.94437
6.51,-304.93372
6.512,-304.69385
6.514,-303.8481
6.516,-303.12546
6.518,-302.5901
6.52,-302.19223
6.522,-301.3173
6.524,-300.64142
6.526,-300.36957
6.528,-300.69128
6.53,-301.14767
6.532,-302.33942
6.534,-304.1241
6.536,-306.1948
6.538,-307.6417
6.54,-308.8356
6.542,-309.69434
6.544,-310.19733
6.546,-309.8238
6.548,-309.3057
6.55,-308.8586
6.552,-308.69638
6.554,-308.45227
6.556,-308.9058
6.558,-310.08368
6.56,-311.6983
6.562,-312.6386
6.564,-312.97522
6.566,-312.44482
6.568,-311.19797
6.57,-309.27365
6.572,-308.2157
6.574,-308.8134
6.576,-311.19797
6.578,-314.0965
6.58,-316.8531
6.582,-318.15512
6.584,-317.20178
6.586,-313.57263
6.588,-309.05975
6.59,-305.32642
6.592,-303.6932
6.594,-303.9813
6.596,-306.1417
6.598,-308.83704
6.6,-310.69766
6.602,-310.49353
6.604,-309.14197
6.606,-307.69122
6.608,-307.19543
6.61,-307.55804
6.612,-308.99646
6.614,-310.545
6.616,-311.19797
6.618,-310.00967
6.62,-308.147
6.622,-306.82657
6.624,-307.19543
6.626,-309.12543
6.628,-312.7546
6.63,-316.89386
6.632,-320.2037
6.634,-321.32117
6.636,-321.0434
6.638,-320.31668
6.64,-320.2037
6.642,-320.70056
6.644,-322.2591
6.646,-324.08566
6.648,-325.20688
6.65,-324.49878
6.652,-322.87198
6.654,-321.27048
6.656,-320.704
6.658,-321.094
6.66,-322.78754
6.662,-324.77747
6.664,-325.7072
6.666,-323.9147
6.668,-319.7545
6.67,-313.81427
6.672,-307.19543
6.674,-300.50064
6.676,-295.24738
6.678,-291.84464
6.68,-290.1846
6.682,-289.3176
6.684,-289.5437
6.686,-290.69925
6.688,-292.6862
6.69,-294.82117
6.692,-297.59335
6.694,-300.81003
6.696,-304.1935
6.698,-306.9068
6.7,-309.4786
6.702,-311.92
6.704,-314.1999
6.706,-315.64716
6.708,-316.75128
6.71,-317.43588
6.712,-317.70212
6.714,-317.25507
6.716,-316.99255
6.718,-317.25272
6.72,-318.20242
6.722,-319.52148
6.724,-321.32675
6.726,-323.06552
6.728,-324.20624
6.73,-324.39362
6.732,-324.06973
6.734,-323.43073
6.736,-322.7053
6.738,-321.73547
6.74,-321.19495
6.742,-321.07965
6.744,-321.20435
6.746,-320.42972
6.748,-319.57916
6.75,-318.9194
6.752,-318.70276
6.754,-318.08276
6.756,-317.83835
6.758,-317.9146
6.76,-318.20242
6.762,-317.96478
6.764,-318.04028
6.766,-318.73468
6.768,-320.2037
6.77,-321.70065
6.772,-323.42648
6.774,-324.8034
6.776,-325.20688
6.778,-323.55844
6.78,-320.14523
6.782,-314.59958
6.784,-306.1948
6.786,-293.21664
6.788,-274.96933
6.79,-250.39912
6.792,-219.1394
6.794,-181.26244
6.796,-139.02661
6.798,-94.660965
6.8,-50.532146
6.802,-8.557335
6.804,27.6175
6.806,53.82865
6.808,64.54106
6.81,53.91499
6.812,15.606192
6.814,-53.079506
6.816,-149.59517
6.818,-264.70932
6.82,-385.30734
6.822,-495.4572
6.824,-580.8695
6.826,-631.94366
6.828,-647.4578
6.83,-632.4338
6.832,-596.3794
6.834,-549.53564
6.836,-501.7002
6.838,-458.79044
6.84,-423.26926
6.842,-394.63535
6.844,-372.5129
6.846,-355.836
6.848,-343.71866
6.85,-334.78662
6.852,-328.6657
6.854,-324.18073
6.856,-320.2037
6.858,-315.56973
6.86,-311.03812
6.862,-307.33084
6.864,-305.19415
6.866,-304.37653
6.868,-305.04462
6.87,-306.20248
6.872,-306.6951
6.874,-305.32886
6.876,-302.64124
6.878,-299.4203
6.88,-296.68875
6.882,-294.8482
6.884,-294.39615
6.886,-295.06232
6.888,-296.18842
6.89,-296.7537
6.892,-296.4367
6.894,-295.3011
6.896,-293.68683
6.898,-291.54272
6.9,-289.50122
6.902,-287.7046
6.904,-286.18207
6.906,-284.31262
6.908,-283.0957
6.91,-282.56638
6.912,-282.67984
6.914,-282.70703
6.916,-283.46774
6.918,-284.63092
6.92,-285.68173
6.922,-285.59262
6.924,-284.84464
6.926,-283.46048
6.928,-281.6792
6.93,-279.42273
6.932,-277.78336
6.934,-277.05942
6.936,-277.17633
6.938,-277.23724
6.94,-277.24442
6.942,-276.65897
6.944,-275.17505
6.946,-272.4285
6.948,-269.5035
6.95,-267.08517
6.952,-265.669
6.954,-264.90567
6.956,-265.0868
6.958,-265.69055
6.96,-266.1693
6.962,-265.77344
6.964,-265.13422
6.966,-264.5402
6.968,-264.16806
6.97,-263.44495
6.972,-262.5163
6.974,-260.87134
6.976,-258.16425
6.978,-254.06703
6.98,-249.81824
6.982,-246.40985
6.984,-244.65564
6.986,-244.38263
6.988,-245.75085
6.99,-247.8667
6.992,-249.65883
6.994,-249.89478
6.996,-248.93484
6.998,-247.15712
7.0,-245.15596
7.002,-242.96307
7.004,-241.3258
7.006,-240.14565
7.008,-239.15215
7.01,-237.71149
7.012,-236.46992
7.014,-235.71832
7.016,-235.64992
7.018,-235.71782
7.02,-236.078
7.022,-236.20488
7.024,-235.64992
7.026,-233.85582
7.028,-231.75005
7.03,-230.00067
7.032,-229.14577
7.034,-228.83667
7.036,-229.29414
7.038,-229.92886
7.04,-230.14641
7.042,-229.21153
7.044,-227.91856
7.046,-226.87909
7.048,-226.64418
7.05,-226.90286
7.052,-227.94781
7.054,-229.23026
7.056,-230.14641
7.058,-229.87308
7.06,-229.14554
7.062,-228.54434
7.064,-228.64546
7.066,-229.20378
7.068,-230.61497
7.07,-232.44492
7.072,-234.14896
7.074,-234.86047
7.076,-235.21329
7.078,-235.65802
7.08,-236.65054
7.082,-237.84325
7.084,-239.58055
7.086,-241.38187
7.088,-242.65437
7.09,-242.49536
7.092,-241.5732
7.094,-240.52274
7.096,-240.15277
7.098,-240.58447
7.1,-242.65138
7.102,-246.20715
7.104,-250.65945
7.106,-254.66856
7.108,-258.10336
7.11,-260.62134
7.112,-262.16678
7.114,-262.4023
7.116,-262.27454
7.118,-262.3528
7.12,-263.16742
7.122,-264.58972
7.124,-267.386
7.126,-271.5481
7.128,-276.67603
7.13,-281.52002
7.132,-285.83563
7.134,-289.10214
7.136,-291.18524
7.138,-291.8899
7.14,-292.47318
7.142,-293.7559
7.144,-296.18842
7.146,-299.0988
7.148,-302.4
7.15,-305.31155
7.152,-307.19543
7.154,-307.3526
7.156,-306.7581
7.158,-306.27435
7.16,-306.6951
7.162,-307.84625
7.164,-310.11273
7.166,-312.96082
7.168,-315.70084
7.17,-317.3043
7.172,-318.29837
7.174,-319.09976
7.176,-320.2037
7.178,-321.3318
7.18,-322.93625
7.182,-324.60062
7.184,-325.7072
7.186,-325.20447
7.188,-323.59723
7.19,-321.3511
7.192,-319.20306
7.194,-317.31284
7.196,-316.73233
7.198,-317.51514
7.2,-319.20306
7.202,-320.47763
7.204,-321.21796
7.206,-321.09503
7.208,-320.2037
7.21,-318.4612
7.212,-317.19122
7.214,-317.0427
7.216,-318.20242
7.218,-319.7067
7.22,-321.4372
7.222,-322.6162
7.224,-322.7053
7.226,-321.08835
7.228,-318.96375
7.23,-317.24808
7.232,-316.70148
7.234,-317.00473
7.236,-318.50095
7.238,-320.5034
7.24,-322.205
7.242,-322.50107
7.244,-322.06573
7.246,-321.42596
7.248,-321.20435
7.25,-321.20078
7.252,-322.09518
7.254,-323.59134
7.256,-325.20688
7.258,-325.97827
7.26,-326.55182
7.262,-327.21014
7.264,-328.2088
7.266,-328.951
7.268,-329.82767
7.27,-330.394
7.272,-330.21005
7.274,-328.5408
7.276,-326.40695
7.278,-324.5522
7.28,-323.70593
7.282,-323.68695
7.284,-325.14462
7.286,-327.69528
7.288,-330.7104
7.29,-333.02597
7.292,-335.02344
7.294,-336.72787
7.296,-338.21515
7.298,-338.85605
7.3,-339.14166
7.302,-338.83774
7.304,-337.71484
7.306,-335.15674
7.308,-332.15402
7.31,-329.31125
7.312,-327.20816
7.314,-325.61154
7.316,-325.24542
7.318,-325.9159
7.32,-327.20816
7.322,-328.1054
7.324,-329.04758
7.326,-330.0539
7.328,-331.2107
7.33,-331.97858
7.332,-332.99554
7.334,-334.15222
7.336,-335.21326
7.338,-335.3621
7.34,-335.20825
7.342,-334.91388
7.344,-334.71292
7.346,-334.23474
7.348,-334.29306
7.35,-334.8774
7.352,-335.71356
7.354,-335.7837
7.356,-335.37595
7.358,-334.3292
7.36,-332.71167
7.362,-330.26138
7.364,-328.1917
7.366,-327.07788
7.368,-327.20816
7.37,-327.88037
7.372,-329.33414
7.374,-330.97913
7.376,-332.21133
7.378,-332.06934
7.38,-331.26038
7.382,-330.1592
7.384,-329.20944
7.386,-328.17484
7.388,-327.83902
7.39,-328.11047
7.392,-328.7091
7.394,-328.80844
7.396,-328.91733
7.398,-329.05215
7.4,-329.20944
7.402,-328.75815
7.404,-328.22925
7.406,-327.54797
7.408,-326.70782
7.41,-325.29816
7.412,-324.3163
7.414,-324.10413
7.416,-324.70657
7.418,-325.20676
7.42,-325.70016
7.422,-325.63477
7.424,-324.70657
7.426,-322.5171
7.428,-320.41104
7.43,-319.27588
7.432,-319.70337
7.434,-321.11392
7.436,-323.60596
7.438,-326.27353
7.44,-328.2088
7.442,-328.3423
7.444,-327.47592
7.446,-326.22372
7.448,-325.20688
7.45,-324.10925
7.452,-323.36032
7.454,-322.3258
7.456,-320.2037
7.458,-315.87833
7.46,-310.08047
7.462,-303.5122
7.464,-297.18906
7.466,-291.5327
7.468,-287.86673
7.47,-286.36884
7.472,-286.68237
7.474,-287.60788
7.476,-289.22913
7.478,-291.2636
7.48,-293.68683
7.482,-296.09308
7.484,-299.3098
7.486,-303.31625
7.488,-307.69574
7.49,-311.17752
7.492,-313.66052
7.494,-314.67807
7.496,-314.1999
7.498,-312.24387
7.5,-310.2951
7.502,-309.2726
7.504,-309.69702
7.506,-311.2121
7.508,-313.58914
7.51,-315.7441
7.512,-316.70148
7.514,-315.98923
7.516,-314.30804
7.518,-312.42578
7.52,-311.19797
7.522,-311.03683
7.524,-312.39236
7.526,-314.62253
7.528,-316.70148
7.53,-317.01163
7.532,-315.98602
7.534,-314.00122
7.536,-311.6983
7.538,-308.6035
7.54,-305.95285
7.542,-303.96783
7.544,-302.69257
7.546,-301.3148
7.548,-300.72342
7.55,-301.07544
7.552,-302.19223
7.554,-302.83182
7.556,-302.8691
7.558,-301.80313
7.56,-299.69064
7.562,-296.6647
7.564,-294.31378
7.566,-293.11078
7.568,-292.18588
7.57,-288.59146
7.572,-279.5852
7.574,-262.10733
7.576,-234.64928
7.578,-197.54257
7.58,-154.41179
7.582,-109.26801
7.584,-65.541695
7.586,-24.613417
7.588,12.421169
7.59,45.23318
7.592,72.04583
7.594,88.95774
7.596,88.51071
7.598,63.246273
7.6,8.005093
7.602,-76.92551
7.604,-186.12038
7.606,-307.9794
7.608,-427.77213
7.61,-530.6482
7.612,-606.50836
7.614,-650.22815
7.616,-662.4214
7.618,-647.749
7.62,-614.48773
7.622,-570.81647
7.624,-523.83325
7.626,-478.32794
7.628,-438.1971
7.63,-404.98465
7.632,-378.74094
7.634,-357.9954
7.636,-341.81134
7.638,-328.62982
7.64,-317.20178
7.642,-306.38034
7.644,-296.71365
7.646,-288.54764
7.648,-282.1795
7.65,-277.13525
7.652,-273.6422
7.654,-271.16788
7.656,-269.17123
7.658,-266.91385
7.66,-264.92255
7.662,-263.45242
7.664,-262.66708
7.666,-262.14435
7.668,-261.87674
7.67,-261.60144
7.672,-261.16614
7.674,-260.37308
7.676,-259.60898
7.678,-259.30994
7.68,-259.6652
7.682,-260.10333
7.684,-260.17325
7.686,-259.28778
7.688,-257.1636
7.69,-253.49344
7.692,-249.71584
7.694,-246.72037
7.696,-245.15596
7.698,-244.52014
7.7,-245.42197
7.702,-246.95798
7.704,-248.15787
7.706,-247.94716
7.708,-247.37737
7.71,-247.08179
7.712,-247.65755
7.714,-248.81
7.716,-250.85942
7.718,-252.97662
7.72,-254.16168
7.722,-253.28479
7.724,-250.92221
7.726,-247.72523
7.728,-244.65564
7.73,-242.16512
7.732,-241.25279
7.734,-241.80254
7.736,-243.15468
7.738,-244.02318
7.74,-244.2346
7.742,-243.5447
7.744,-242.15405
7.746,-240.19202
7.748,-238.80475
7.75,-238.45195
7.752,-239.15215
7.754,-240.07681
7.756,-241.04958
7.758,-241.39723
7.76,-240.65309
7.762,-238.34177
7.764,-235.32677
7.766,-232.23671
7.768,-229.64609
7.77,-227.46799
7.772,-226.2269
7.774,-225.72206
7.776,-225.64354
7.778,-225.36621
7.78,-225.40701
7.782,-225.96178
7.784,-227.1445
7.786,-228.4067
7.788,-229.85432
7.79,-230.94627
7.792,-231.14705
7.794,-229.76967
7.796,-227.45467
7.798,-224.71497
7.8,-222.14131
7.802,-219.74252
7.804,-218.16444
7.806,-217.2552
7.808,-216.63782
7.81,-215.50871
7.812,-214.20905
7.814,-212.84708
7.816,-211.63463
7.818,-210.30763
7.82,-209.47716
7.822,-209.1361
7.824,-209.13304
7.826,-208.82162
7.828,-208.61174
7.83,-208.53365
7.832,-208.63272
7.834,-208.46754
7.836,-208.56558
7.838,-208.95772
7.84,-209.63336
7.842,-210.12361
7.844,-211.02449
7.846,-212.49721
7.848,-214.63654
7.85,-216.93083
7.852,-219.7374
7.854,-222.78806
7.856,-225.64354
7.858,-227.31738
7.86,-227.95331
7.862,-227.48967
7.864,-226.14386
7.866,-223.89462
7.868,-221.88185
7.87,-220.70465
7.872,-220.64037
7.874,-221.0768
7.876,-222.17703
7.878,-223.59464
7.88,-225.14323
7.882,-226.4376
7.884,-228.41661
7.886,-231.59317
7.888,-236.15022
7.89,-241.2409
7.892,-246.58762
7.894,-251.29521
7.896,-254.662
7.898,-256.01746
7.9,-256.30966
7.902,-256.42557
7.904,-257.1636
7.906,-258.3685
7.908,-260.31525
7.91,-262.44977
7.912,-264.16806
7.914,-264.71234
7.916,-264.8842
7.918,-265.45355
7.92,-267.16995
7.922,-269.8738
7.924,-273.78882
7.926,-278.19635
7.928,-282.1795
7.93,-284.55206
7.932,-285.6807
7.934,-286.00677
7.936,-286.18207
7.938,-286.22742
7.94,-286.8453
7.942,-287.93002
7.944,-289.18396
7.946,-289.90076
7.948,-290.66556
7.95,-291.82584
7.952,-293.68683
7.954,-295.7827
7.956,-298.32376
7.958,-300.81207
7.96,-302.69257
7.962,-303.1126
7.964,-302.60275
7.966,-301.50726
7.968,-300.19098
7.97,-298.33218
7.972,-296.5106
7.974,-294.75864
7.976,-293.18652
7.978,-291.57138
7.98,-290.97278
7.982,-291.8443
7.984,-294.18716
7.986,-296.85983
7.988,-299.39175
7.99,-300.728
7.992,-300.19098
7.994,-297.31497
7.996,-293.59222
7.998,-290.45868
8.0,-289.18396
8.002,-289.79495
8.004,-292.49185
8.006,-296.13083
8.008,-299.19034
8.01,-299.86826
8.012,-298.30615
8.014,-295.02368
8.016,-291.18524
8.018,-287.5731
8.02,-285.82788
8.022,-286.33875
8.024,-288.68365
8.026,-291.31638
8.028,-293.76886
8.03,-295.30222
8.032,-295.6881
8.034,-294.6958
8.036,-293.72784
8.038,-293.69446
8.04,-295.18777
8.042,-297.7216
8.044,-301.45154
8.046,-305.58066
8.048,-309.1967
8.05,-311.0719
8.052,-311.66046
8.054,-311.32928
8.056,-310.69766
8.058,-309.81192
8.06,-309.69147
8.062,-310.42
8.064,-311.6983
8.066,-312.4572
8.068,-312.85593
8.07,-312.63696
8.072,-311.6983
8.074,-309.54044
8.076,-307.0315
8.078,-304.59232
8.08,-302.69257
8.082,-301.2546
8.084,-301.26334
8.086,-302.85355
8.088,-305.69446
8.09,-308.4874
8.092,-310.9927
8.094,-312.6053
8.096,-313.19925
8.098,-312.697
8.1,-312.62112
8.102,-313.867
8.104,-316.70148
8.106,-319.9402
8.108,-322.86578
8.11,-323.97992
8.112,-322.205
8.114,-316.88184
8.116,-309.72516
8.118,-302.66986
8.12,-297.6894
8.122,-295.50574
8.124,-296.9567
8.126,-301.2049
8.128,-306.6951
8.13,-311.24506
8.132,-314.45538
8.134,-316.1294
8.136,-316.70148
8.138,-316.34427
8.14,-316.26566
8.142,-316.65683
8.144,-317.20178
8.146,-316.78622
8.148,-315.56046
8.15,-313.43335
8.152,-310.69766
8.154,-307.42334
8.156,-304.94162
8.158,-303.81735
8.16,-304.1935
8.162,-305.24277
8.164,-307.00766
8.166,-308.8499
8.168,-310.19733
8.17,-310.189
8.172,-309.5782
8.174,-308.87286
8.176,-308.69638
8.178,-308.99673
8.18,-310.63605
8.182,-313.4237
8.184,-316.70148
8.186,-319.03552
8.188,-320.3614
8.19,-320.47137
8.192,-319.70337
8.194,-318.2804
8.196,-317.78473
8.198,-318.82227
8.2,-321.20435
8.202,-323.3477
8.204,-324.36798
8.206,-322.8908
8.208,-318.20242
8.21,-310.10263
8.212,-300.66153
8.214,-291.92087
8.216,-285.68173
8.218,-282.28592
8.22,-282.12595
8.222,-283.98734
8.224,-286.18207
8.226,-286.73206
8.228,-285.73853
8.23,-283.68015
8.232,-281.6792
8.234,-280.43607
8.236,-281.4837
8.238,-285.06894
8.24,-290.68494
8.242,-296.7919
8.244,-302.94266
8.246,-308.2785
8.248,-312.1986
8.25,-313.86505
8.252,-313.88617
8.254,-312.5213
8.256,-310.19733
8.258,-307.12662
8.26,-304.46292
8.262,-302.73157
8.264,-302.19223
8.266,-302.64276
8.268,-304.13403
8.27,-306.03656
8.272,-307.69574
8.274,-308.6232
8.276,-309.05972
8.278,-309.03864
8.28,-308.69638
8.282,-307.74762
8.284,-307.13034
8.286,-307.11398
8.288,-307.69574
8.29,-307.6361
8.292,-307.52505
8.294,-307.3345
8.296,-307.19543
8.298,-306.5027
8.3,-306.31754
8.302,-306.8115
8.304,-307.69574
8.306,-307.62262
8.308,-306.53134
8.31,-304.2104
8.312,-301.19162
8.314,-298.153
8.316,-297.16245
8.318,-299.06018
8.32,-303.19287
8.322,-306.6665
8.324,-306.61688
8.326,-299.65848
8.328,-283.68048
8.33,-258.1092
8.332,-225.5272
8.334,-188.87221
8.336,-150.59581
8.338,-111.17383
8.34,-70.82947
8.342,-28.878912
8.344,14.008912
8.346,54.809967
8.348,86.06592
8.35,98.72613
8.352,84.053474
8.354,37.00399
8.356,-43.08449
8.358,-149.91605
8.36,-271.67282
8.362,-392.9808
8.364,-499.72348
8.366,-580.34534
8.368,-628.3998
8.37,-642.7407
8.372,-628.472
8.374,-593.5818
8.376,-547.3482
8.378,-497.87604
8.38,-452.26093
8.382,-414.22577
8.384,-384.74475
8.386,-362.31552
8.388,-345.54385
8.39,-332.4656
8.392,-321.70465
8.394,-312.21555
8.396,-304.66235
8.398,-299.32608
8.4,-296.18842
8.402,-294.2832
8.404,-293.3548
8.406,-292.53104
8.408,-291.18524
8.41,-288.72986
8.412,-286.06235
8.414,-283.75528
8.416,-282.1795
8.418,-280.90698
8.42,-279.86438
8.422,-278.4559
8.424,-276.1757
8.426,-272.60144
8.428,-268.2781
8.43,-264.02838
8.432,-260.66583
8.434,-258.38214
8.436,-257.22754
8.438,-256.94025
8.44,-257.1636
8.442,-257.21997
8.444,-257.55933
8.446,-258.23404
8.448,-259.16486
8.45,-259.38153
8.452,-259.24362
8.454,-258.00165
8.456,-255.16232
8.458,-250.35841
8.46,-245.42659
8.462,-241.67198
8.464,-240.15277
8.466,-240.78407
8.468,-243.73508
8.47,-247.73978
8.472,-251.15977
8.474,-252.19394
8.476,-250.80952
8.478,-247.3079
8.48,-242.65437
8.482,-237.66888
8.484,-233.94975
8.486,-232.00621
8.488,-231.64737
8.49,-231.78233
8.492,-232.17464
8.494,-232.31996
8.496,-232.14769
8.498,-231.62181
8.5,-231.85692
8.502,-233.25792
8.504,-235.64992
8.506,-237.8087
8.508,-239.03401
8.51,-238.18245
8.512,-234.64928
8.514,-228.3566
8.516,-220.99678
8.518,-214.26074
8.52,-209.63336
8.522,-207.4697
8.524,-208.01453
8.526,-210.21445
8.528,-212.63527
8.53,-213.69072
8.532,-213.33551
8.534,-211.77422
8.536,-209.63336
8.538,-207.19182
8.54,-205.33498
8.542,-204.07994
8.544,-203.12923
8.546,-201.77713
8.548,-200.40929
8.55,-199.24742
8.552,-198.62636
8.554,-198.39267
8.556,-199.03864
8.558,-200.28642
8.56,-201.62827
8.562,-202.16528
8.564,-202.1418
8.566,-201.67928
8.568,-201.12794
8.57,-200.49678
8.572,-200.57129
8.574,-201.39679
8.576,-202.6289
8.578,-203.2335
8.58,-203.0503
8.582,-201.6899
8.584,-199.12668
8.586,-195.32654
8.588,-191.53712
8.59,-188.61223
8.592,-187.11903
8.594,-186.69075
8.596,-187.4624
8.598,-188.82114
8.6,-190.12094
8.602,-190.52765
8.604,-190.55264
8.606,-190.60397
8.608,-191.12158
8.61,-191.87457
8.612,-193.25623
8.614,-194.97046
8.616,-196.62509
8.618,-197.5188
8.62,-198.17947
8.622,-198.93987
8.624,-200.12732
8.626,-201.41602
8.628,-203.1686
8.63,-205.1578
8.632,-207.13177
8.634,-208.53848
8.636,-210.03047
8.638,-211.9827
8.64,-214.63654
8.642,-217.43608
8.644,-220.45369
8.646,-223.17091
8.648,-225.14323
8.65,-225.80089
8.652,-226.00438
8.654,-226.53178
8.656,-228.14514
8.658,-230.79398
8.66,-234.88466
8.662,-239.92961
8.664,-245.15596
8.666,-249.35362
8.668,-252.5916
8.67,-254.92352
8.672,-256.66327
8.674,-257.72424
8.676,-258.8519
8.678,-260.1925
8.68,-261.66647
8.682,-262.60367
8.684,-263.3147
8.686,-263.81088
8.688,-264.16806
8.69,-264.01215
8.692,-263.93417
8.694,-264.10968
8.696,-264.66837
8.698,-265.23502
8.7,-266.37906
8.702,-268.20508
8.704,-270.67218
8.706,-273.1003
8.708,-275.66617
8.71,-278.10364
8.712,-280.17825
8.714,-281.27594
8.716,-281.9327
8.718,-282.348
8.72,-282.67984
8.722,-282.48856
8.724,-282.2506
8.726,-281.97293
8.728,-281.6792
8.73,-280.98254
8.732,-280.6071
8.734,-280.81277
8.736,-281.6792
8.738,-282.5342
8.74,-283.5462
8.742,-284.35654
8.744,-284.6811
8.746,-283.95267
8.748,-282.97223
8.75,-282.23547
8.752,-282.1795
8.754,-282.4881
8.756,-283.6385
8.758,-285.34723
8.76,-287.1827
8.762,-288.2363
8.764,-288.88672
8.766,-289.17572
8.768,-289.18396
8.77,-288.42725
8.772,-287.4699
8.774,-286.35553
8.776,-285.18143
8.778,-283.67352
8.78,-282.81656
8.782,-283.08035
8.784,-284.6811
8.786,-286.91107
8.788,-289.805
8.79,-292.64062
8.792,-294.68747
8.794,-294.95462
8.796,-294.04407
8.798,-292.4153
8.8,-290.68494
8.802,-288.86374
8.804,-287.89127
8.806,-287.8797
8.808,-288.68365
8.81,-289.52054
8.812,-290.78387
8.814,-292.38123
8.816,-294.18716
8.818,-295.46933
8.82,-296.59424
8.822,-297.37994
8.824,-297.6894
8.826,-296.9972
8.828,-296.11832
8.83,-295.42136
8.832,-295.18777
8.834,-294.9693
8.836,-295.24316
8.838,-295.76398
8.84,-296.18842
8.842,-295.70642
8.844,-294.8806
8.846,-293.9368
8.848,-293.18652
8.85,-292.38
8.852,-292.2965
8.854,-292.96524
8.856,-294.18716
8.858,-295.11053
8.86,-296.06036
8.862,-296.9253
8.864,-297.6894
8.866,-297.87912
8.868,-298.22287
8.87,-298.84204
8.872,-299.69064
8.874,-300.01947
8.876,-300.21292
8.878,-300.12457
8.88,-299.69064
8.882,-298.45938
8.884,-297.31113
8.886,-296.63138
8.888,-296.68875
8.89,-297.01883
8.892,-298.0451
8.894,-299.42917
8.896,-300.69128
8.898,-300.8867
8.9,-300.4121
8.902,-299.39883
8.904,-298.1897
8.906,-296.72214
8.908,-296.03476
8.91,-296.39044
8.912,-297.6894
8.914,-298.99686
8.916,-300.33414
8.918,-301.18445
8.92,-301.19162
8.922,-299.77222
8.924,-297.8453
8.926,-295.97504
8.928,-294.68747
8.93,-293.7743
8.932,-293.91827
8.934,-294.99216
8.936,-296.68875
8.938,-298.1458
8.94,-299.80618
8.942,-301.66373
8.944,-303.6932
8.946,-305.22064
8.948,-306.64633
8.95,-307.72565
8.952,-308.19608
8.954,-307.34882
8.956,-305.82086
8.958,-303.75153
8.96,-301.19162
8.962,-297.5231
8.964,-293.27908
8.966,-288.55112
8.968,-283.68048
8.97,-278.7772
8.972,-275.28857
8.974,-273.8972
8.976,-274.67474
8.978,-276.40268
8.98,-278.52045
8.982,-279.84695
8.984,-279.67792
8.986,-277.63483
8.988,-275.37756
8.99,-274.3641
8.992,-275.67538
8.994,-278.92532
8.996,-283.89716
8.998,-289.14124
9.0,-293.18652
9.002,-294.6956
9.004,-294.51743
9.006,-293.75064
9.008,-293.68683
9.01,-294.74277
9.012,-297.4521
9.014,-301.0043
9.016,-304.1935
9.018,-305.85208
9.02,-306.05115
9.022,-305.0951
9.024,-303.6932
9.026,-302.52045
9.028,-302.27954
9.03,-302.71796
9.032,-303.19287
9.034,-302.78485
9.036,-301.79324
9.038,-300.4477
9.04,-299.19034
9.042,-297.5947
9.044,-296.81055
9.046,-297.05402
9.048,-298.1897
9.05,-298.87277
9.052,-299.5026
9.054,-299.9334
9.056,-300.19098
9.058,-299.74524
9.06,-299.57693
9.062,-300.02536
9.064,-301.19162
9.066,-302.28302
9.068,-303.55286
9.07,-304.63428
9.072,-305.19415
9.074,-304.42145
9.076,-302.59085
9.078,-299.08902
9.08,-292.6862
9.082,-281.06277
9.084,-262.90613
9.086,-236.85022
9.088,-202.6289
9.09,-160.89882
9.092,-114.74377
9.094,-67.38338
9.096,-22.014004
9.098,19.018436
9.1,52.360294
9.102,74.7629
9.104,82.0522
9.106,69.73041
9.108,32.436375
9.11,-32.49503
9.112,-123.57861
9.114,-233.56418
9.116,-351.51465
9.118,-463.20413
9.12,-554.85297
9.122,-615.9315
9.124,-643.009
9.126,-638.51556
9.128,-609.888
9.13,-566.5568
9.132,-518.8091
9.134,-474.0292
9.136,-436.27756
9.138,-406.0426
9.14,-382.8731
9.142,-364.8837
9.144,-350.2228
9.146,-337.1164
9.148,-325.57834
9.15,-315.56036
9.152,-307.19543
9.154,-300.11075
9.156,-294.89386
9.158,-291.37936
9.16,-289.18396
9.162,-287.33798
9.164,-285.90543
9.166,-284.469
9.168,-282.67984
9.17,-279.9133
9.172,-276.5907
9.174,-272.90555
9.176,-269.17123
9.178,-265.4951
9.18,-262.6007
9.182,-261.04883
9.184,-261.16614
9.186,-262.61478
9.188,-264.9819
9.19,-267.58984
9.192,-269.67154
9.194,-270.22626
9.196,-269.32382
9.198,-267.24356
9.2,-264.66837
9.202,-261.85538
9.204,-260.41342
9.206,-260.60995
9.208,-262.16678
9.21,-263.835
9.212,-265.7956
9.214,-267.27014
9.216,-267.6703
9.218,-266.31787
9.22,-264.21988
9.222,-261.8667
9.224,-259.6652
9.226,-257.3375
9.228,-255.4274
9.23,-253.65512
9.232,-251.6601
9.234,-248.80469
9.236,-245.72626
9.238,-242.73239
9.24,-240.15277
9.242,-237.7984
9.244,-236.25922
9.246,-235.44136
9.248,-235.1496
9.25,-234.82121
9.252,-234.96315
9.254,-235.60744
9.256,-236.65054
9.258,-237.38884
9.26,-237.89082
9.262,-237.73094
9.264,-236.65054
9.266,-234.33974
9.268,-231.76042
9.27,-229.54771
9.272,-228.14514
9.274,-227.17616
9.276,-226.76855
9.278,-226.29417
9.28,-225.14323
9.282,-222.65315
9.284,-219.56859
9.286,-216.51369
9.288,-214.13623
9.29,-212.40977
9.292,-211.84373
9.294,-212.09811
9.296,-212.63527
9.298,-212.58583
9.3,-212.26674
9.302,-211.74274
9.304,-211.13431
9.306,-210.07796
9.308,-208.99062
9.31,-207.72057
9.312,-206.13113
9.314,-203.85751
9.316,-201.7504
9.318,-200.35687
9.32,-200.12732
9.322,-200.77522
9.324,-202.5232
9.326,-204.75244
9.328,-206.63145
9.33,-207.02992
9.332,-206.14247
9.334,-204.2656
9.336,-202.12859
9.338,-200.21983
9.34,-199.81041
9.342,-201.23308
9.344,-204.12985
9.346,-207.10587
9.348,-209.51317
9.35,-210.46272
9.352,-209.63336
9.354,-206.99261
9.356,-204.11772
9.358,-202.34192
9.36,-202.6289
9.362,-204.70265
9.364,-208.40782
9.366,-212.51822
9.368,-215.63718
9.37,-216.28036
9.372,-214.72105
9.374,-211.61742
9.376,-208.1324
9.378,-205.01006
9.38,-203.68724
9.382,-204.61212
9.384,-207.63208
9.386,-211.69798
9.388,-216.56256
9.39,-221.56999
9.392,-226.14386
9.394,-229.35622
9.396,-231.37886
9.398,-232.12035
9.4,-231.64737
9.402,-229.75815
9.404,-227.46123
9.406,-225.51236
9.408,-224.64291
9.41,-224.90787
9.412,-227.03102
9.414,-230.93147
9.416,-236.15022
9.418,-241.50359
9.42,-246.79887
9.422,-251.58997
9.424,-255.66264
9.426,-258.55496
9.428,-260.94537
9.43,-263.1069
9.432,-265.1687
9.434,-266.59277
9.436,-267.77826
9.438,-268.7498
9.44,-269.67154
9.442,-270.40106
9.444,-271.89966
9.446,-274.62354
9.448,-278.67728
9.45,-283.1715
9.452,-287.77634
9.454,-291.4534
9.456,-293.18652
9.458,-291.8529
9.46,-288.043
9.462,-282.67157
9.464,-277.17633
9.466,-272.61774
9.468,-270.69525
9.47,-271.8886
9.472,-275.67538
9.474,-280.21857
9.476,-284.4145
9.478,-287.04025
9.48,-287.683
9.482,-286.40292
9.484,-285.0341
9.486,-285.02853
9.488,-287.1827
9.49,-290.7058
9.492,-294.8931
9.494,-298.1507
9.496,-299.19034
9.498,-297.15625
9.5,-293.42953
9.502,-289.7068
9.504,-287.683
9.506,-287.76147
9.508,-290.31317
9.51,-294.17282
9.512,-297.6894
9.514,-298.9565
9.516,-298.10605
9.518,-295.76303
9.52,-293.18652
9.522,-291.14398
9.524,-291.03763
9.526,-292.9466
9.528,-296.18842
9.53,-299.154
9.532,-301.48703
9.534,-302.6881
9.536,-302.69257
9.538,-301.21542
9.54,-299.29953
9.542,-297.37457
9.544,-295.6881
9.546,-293.80237
9.548,-292.4064
9.55,-291.65942
9.552,-291.68555
9.554,-292.00888
9.556,-293.24518
9.558,-295.3676
9.56,-298.1897
9.562,-300.85568
9.564,-303.58405
9.566,-305.9966
9.568,-307.69574
9.57,-307.84692
9.572,-307.0416
9.574,-305.63028
9.576,-304.1935
9.578,-302.854
9.58,-302.81946
9.582,-304.36102
9.584,-307.19543
9.586,-310.00073
9.588,-312.40894
9.59,-313.613
9.592,-313.19925
9.594,-310.7902
9.596,-307.737
9.598,-305.08234
9.6,-303.6932
9.602,-303.4054
9.604,-304.62924
9.606,-306.7015
9.608,-308.69638
9.61,-309.28467
9.612,-308.78186
9.614,-307.51233
9.616,-306.1948
9.618,-305.09827
9.62,-305.4445
9.622,-307.33548
9.624,-310.19733
9.626,-312.4265
9.628,-313.53314
9.63,-312.81525
9.632,-310.19733
9.634,-305.7734
9.636,-301.33963
9.638,-298.19913
9.64,-297.18906
9.642,-297.8362
9.644,-300.1376
9.646,-303.09317
9.648,-305.69446
9.65,-306.79456
9.652,-307.06036
9.654,-307.01248
9.656,-307.19543
9.658,-307.2816
9.66,-307.71274
9.662,-308.02316
9.664,-307.69574
9.666,-305.97775
9.668,-303.78668
9.67,-301.8083
9.672,-300.69128
9.674,-300.17395
9.676,-300.67337
9.678,-301.5941
9.68,-302.19223
9.682,-301.46902
9.684,-300.07367
9.686,-298.57007
9.688,-297.6894
9.69,-297.48386
9.692,-298.70905
9.694,-301.02878
9.696,-303.6932
9.698,-305.36133
9.7,-306.11603
9.702,-305.9328
9.704,-305.19415
9.706,-303.98294
9.708,-303.53128
9.71,-304.1651
9.712,-305.69446
9.714,-306.96768
9.716,-307.88785
9.718,-307.97958
9.72,-307.19543
9.722,-305.46738
9.724,-304.21994
9.726,-304.22455
9.728,-305.69446
9.73,-307.5548
9.732,-309.3647
9.734,-309.99005
9.736,-308.69638
9.738,-305.01053
9.74,-300.49207
9.742,-296.52243
9.744,-294.18716
9.746,-293.1936
9.748,-293.49304
9.75,-293.78458
9.752,-292.6862
9.754,-288.87137
9.756,-283.19107
9.758,-276.7995
9.76,-271.17252
9.762,-266.96072
9.764,-265.25864
9.766,-265.77917
9.768,-267.6703
9.77,-269.49258
9.772,-271.34888
9.774,-273.29245
9.776,-275.67538
9.778,-278.28763
9.78,-281.79184
9.782,-285.8329
9.784,-289.6843
9.786,-292.03668
9.788,-293.04184
9.79,-292.7611
9.792,-291.68555
9.794,-290.09442
9.796,-289.31964
9.798,-289.84665
9.8,-291.68555
9.802,-294.12015
9.804,-296.91782
9.806,-299.2995
9.808,-300.69128
9.81,-300.84885
9.812,-300.4279
9.814,-299.8913
9.816,-299.69064
9.818,-299.999
9.82,-301.17215
9.822,-302.7862
9.824,-304.1935
9.826,-304.21844
9.828,-303.3733
9.83,-301.92184
9.832,-300.19098
9.834,-297.3796
9.836,-294.4364
9.838,-291.59503
9.84,-289.18396
9.842,-286.86163
9.844,-285.95972
9.846,-286.9511
9.848,-289.6843
9.85,-292.6365
9.852,-295.13345
9.854,-296.10406
9.856,-295.18777
9.858,-292.40106
9.86,-289.5341
9.862,-287.55112
9.864,-286.18207
9.866,-283.01477
9.868,-275.65292
9.87,-261.20422
9.872,-238.1515
9.874,-206.66963
9.876,-170.01653
9.878,-131.62856
9.88,-94.05984
9.882,-57.524662
9.884,-21.829865
9.886,13.77125
9.888,48.030556
9.89,76.74644
9.892,91.31082
9.894,82.370255
9.896,42.527054
9.898,-30.049212
9.9,-131.46082
9.902,-250.8243
9.904,-373.23743
9.906,-482.93063
9.908,-568.36664
9.91,-622.82086
9.912,-645.4106
9.914,-639.6121
9.916,-612.9337
9.918,-573.2635
9.92,-527.8358
9.922,-481.9403
9.924,-440.1833
9.926,-404.9771
9.928,-377.24
9.93,-356.2131
9.932,-341.284
9.934,-330.74887
9.936,-322.7053
9.938,-315.01913
9.94,-307.19962
9.942,-298.96066
9.944,-290.68494
9.946,-282.76794
9.948,-276.75793
9.95,-273.37695
9.952,-272.67346
9.954,-273.50388
9.956,-275.08893
9.958,-276.01935
9.96,-275.17505
9.962,-271.8196
9.964,-266.7577
9.966,-261.23807
9.968,-256.66327
9.97,-253.77757
9.972,-252.97661
9.974,-253.89326
9.976,-255.66264
9.978,-257.05417
9.98,-257.5044
9.982,-256.92926
9.984,-255.66264
9.986,-253.67427
9.988,-251.94003
9.99,-250.50453
9.992,-249.15851
9.994,-247.03557
9.996,-245.04074
9.998,-243.20163
10.0,-241.65373
10.002,-240.1045
10.004,-239.65456
10.006,-240.2993
10.008,-241.65373
10.01,-242.6239
10.012,-243.2523
10.014,-243.12785
10.016,-242.15405
10.018,-240.18309
10.02,-238.37236
10.022,-237.28836
10.024,-237.15086
10.026,-237.31137
10.028,-237.7147
10.03,-237.66762
10.032,-236.65054
10.034,-234.19847
10.036,-231.25975
10.038,-228.55096
10.04,-226.64418
10.042,-225.29169
10.044,-224.67511
10.046,-224.16576
10.048,-223.14195
10.05,-220.99162
10.052,-218.52951
10.054,-216.50172
10.056,-215.63718
10.058,-215.88702
10.06,-217.47119
10.062,-219.58443
10.064,-221.14069
10.066,-220.84735
10.068,-218.85468
10.07,-215.51064
10.072,-211.63463
10.074,-207.8211
10.076,-205.37022
10.078,-204.68668
10.08,-205.63081
10.082,-207.26526
10.084,-209.36618
10.086,-211.31058
10.088,-212.63527
10.09,-212.70822
10.092,-212.0252
10.094,-210.76945
10.096,-209.13304
10.098,-206.85245
10.1,-204.57204
10.102,-202.4568
10.104,-200.62762
10.106,-198.75607
10.108,-197.43814
10.11,-196.75284
10.112,-196.62509
10.114,-196.39769
10.116,-196.24799
10.118,-195.89438
10.12,-195.12413
10.122,-193.47644
10.124,-191.65001
10.126,-190.06483
10.128,-189.12032
10.13,-188.61101
10.132,-189.06592
10.134,-190.34567
10.136,-192.12222
10.138,-193.56392
10.14,-194.89433
10.142,-196.06375
10.144,-197.1254
10.146,-197.7107
10.148,-198.43211
10.15,-199.40312
10.152,-200.62762
10.154,-201.56435
10.156,-202.663
10.158,-203.98978
10.16,-205.63081
10.162,-207.2044
10.164,-209.32072
10.166,-212.12521
10.168,-215.63718
10.17,-219.23218
10.172,-223.19063
10.174,-227.26941
10.176,-231.14705
10.178,-233.98874
10.18,-236.04752
10.182,-237.25732
10.184,-237.65118
10.186,-236.8866
10.188,-235.74101
10.19,-234.67345
10.192,-234.14896
10.194,-234.07884
10.196,-235.24323
10.198,-237.80867
10.2,-241.65373
10.202,-245.90053
10.204,-250.47685
10.206,-254.87268
10.208,-258.66455
10.21,-261.15616
10.212,-262.89923
10.214,-264.2642
10.216,-265.669
10.218,-266.948
10.22,-268.72678
10.222,-271.02386
10.224,-273.6741
10.226,-275.94577
10.228,-278.1323
10.23,-280.20407
10.232,-282.1795
10.234,-283.6062
10.236,-285.0566
10.238,-286.70114
10.24,-288.68365
10.242,-290.6077
10.244,-292.9969
10.246,-295.7915
10.248,-298.69
10.25,-300.68665
10.252,-301.79614
10.254,-301.7736
10.256,-300.69128
10.258,-298.4773
10.26,-296.37427
10.262,-295.1428
10.264,-295.18777
10.266,-295.87375
10.268,-297.16653
10.27,-298.32642
10.272,-298.69
10.274,-297.4668
10.276,-295.4695
10.278,-293.44345
10.28,-292.18588
10.282,-291.69034
10.284,-292.53052
10.286,-294.28638
10.288,-296.18842
10.29,-296.93915
10.292,-296.6893
10.294,-295.5861
10.296,-294.18716
10.298,-292.7003
10.3,-292.35187
10.302,-293.44058
10.304,-295.6881
10.306,-297.81406
10.308,-299.5278
10.31,-300.21045
10.312,-299.69064
10.314,-297.80783
10.316,-296.00858
10.318,-295.26917
10.32,-296.18842
10.322,-298.17117
10.324,-301.16986
10.326,-304.18488
10.328,-306.1948
10.33,-306.031
10.332,-304.38266
10.334,-301.9557
10.336,-299.69064
10.338,-297.83453
10.34,-297.41666
10.342,-298.37155
10.344,-300.19098
10.346,-301.6558
10.348,-302.85342
10.35,-303.54956
10.352,-303.6932
10.354,-302.79587
10.356,-301.6091
10.358,-300.33716
10.36,-299.19034
10.362,-297.88324
10.364,-297.3743
10.366,-297.9731
10.368,-299.69064
10.37,-301.6094
10.372,-303.7303
10.374,-305.4155
10.376,-306.1948
10.378,-305.4495
10.38,-304.22003
10.382,-303.2523
10.384,-303.19287
10.386,-303.76544
10.388,-305.4065
10.39,-307.6073
10.392,-309.69702
10.394,-310.60526
10.396,-310.81522
10.398,-310.5663
10.4,-310.19733
10.402,-309.39835
10.404,-308.85617
10.406,-308.50797
10.408,-308.19608
10.41,-307.2872
10.412,-306.51538
10.414,-306.1153
10.416,-306.1948
10.418,-306.07855
10.42,-306.0758
10.422,-305.8559
10.424,-305.19415
10.426,-303.61227
10.428,-302.18213
10.43,-301.5555
10.432,-302.19223
10.434,-303.56815
10.436,-305.90543
10.438,-308.5276
10.44,-310.69766
10.442,-311.39047
10.444,-311.2393
10.446,-310.67496
10.448,-310.19733
10.45,-309.55344
10.452,-309.367
10.454,-309.38382
10.456,-309.1967
10.458,-307.97192
10.46,-306.3759
10.462,-304.7931
10.464,-303.6932
10.466,-302.91235
10.468,-303.1524
10.47,-304.22922
10.472,-305.69446
10.474,-306.53177
10.476,-307.01428
10.478,-307.05258
10.48,-306.6951
10.482,-305.5358
10.484,-304.37112
10.486,-303.38663
10.488,-302.69257
10.49,-301.83023
10.492,-301.55283
10.494,-302.0051
10.496,-303.19287
10.498,-304.4099
10.5,-306.01636
10.502,-307.71735
10.504,-309.1967
10.506,-309.68726
10.508,-309.80588
10.51,-309.7398
10.512,-309.69702
10.514,-309.2914
10.516,-309.2393
10.518,-309.57474
10.52,-310.19733
10.522,-310.37793
10.524,-310.57178
10.526,-310.6052
10.528,-310.19733
10.53,-308.43707
10.532,-305.65695
10.534,-301.72394
10.536,-296.68875
10.538,-290.3092
10.54,-283.8357
10.542,-278.0618
10.544,-273.6741
10.546,-270.55392
10.548,-269.4653
10.55,-270.29282
10.552,-272.67346
10.554,-275.59897
10.556,-279.2905
10.558,-283.43372
10.56,-287.683
10.562,-291.10913
10.564,-294.01392
10.566,-296.2181
10.568,-297.6894
10.57,-298.07748
10.572,-298.37308
10.574,-299.00858
10.576,-300.19098
10.578,-301.3561
10.58,-302.65988
10.582,-303.5822
10.584,-303.6932
10.586,-302.64166
10.588,-301.14917
10.59,-299.67886
10.592,-298.69
10.594,-298.3828
10.596,-299.12894
10.598,-300.56732
10.6,-302.19223
10.602,-303.37466
10.604,-304.52512
10.606,-305.76654
10.608,-307.19543
10.61,-307.93033
10.612,-308.67047
10.614,-309.33105
10.616,-309.69702
10.618,-308.5385
10.62,-306.6376
10.622,-304.33652
10.624,-302.19223
10.626,-300.1254
10.628,-299.36136
10.63,-300.1596
10.632,-302.19223
10.634,-304.01135
10.636,-305.18817
10.638,-304.981
10.64,-303.19287
10.642,-299.6781
10.644,-295.71292
10.646,-291.61725
10.648,-286.68237
10.65,-278.5301
10.652,-265.30374
10.654,-244.92984
10.656,-216.63782
10.658,-180.96289
10.66,-141.12035
10.662,-100.29375
10.664,-61.03883
10.666,-24.260593
10.668,8.645495
10.67,36.21943
10.672,55.03501
10.674,59.664177
10.676,42.03809
10.678,-4.3845024
10.68,-82.0522
10.682,-186.50645
10.684,-307.61395
10.686,-429.80646
10.688,-536.3412
10.69,-613.0718
10.692,-653.362
10.694,-657.5555
10.696,-632.4023
10.698,-587.8639
10.7,-535.56696
10.702,-484.51178
10.704,-440.2801
10.706,-404.5628
10.708,-377.64383
10.71,-357.8855
10.712,-343.21835
10.714,-331.29532
10.716,-321.3472
10.718,-312.59076
10.72,-304.69385
10.722,-297.22287
10.724,-291.05566
10.726,-286.5172
10.728,-283.68048
10.73,-281.82382
10.732,-280.99878
10.734,-280.6232
10.736,-280.17825
10.738,-278.96875
10.74,-277.48874
10.742,-275.98547
10.744,-274.67474
10.746,-273.30167
10.748,-272.09915
10.75,-271.05905
10.752,-270.17188
10.754,-269.19058
10.756,-268.31906
10.758,-267.76917
10.76,-267.6703
10.762,-267.62503
10.764,-267.7255
10.766,-267.7917
10.768,-267.6703
10.77,-266.68265
10.772,-265.70157
10.774,-264.71732
10.776,-263.66772
10.778,-261.8785
10.78,-260.3
10.782,-258.79678
10.784,-257.1636
10.786,-254.79483
10.788,-252.53995
10.79,-250.61095
10.792,-249.15851
10.794,-247.77441
10.796,-246.9737
10.798,-246.53767
10.8,-246.1566
10.802,-245.16055
10.804,-244.02837
10.806,-242.8304
10.808,-241.65373
10.81,-240.14992
10.812,-238.88193
10.814,-237.87796
10.816,-237.15086
10.818,-236.3592
10.82,-236.11421
10.822,-236.44237
10.824,-237.15086
10.826,-237.44006
10.828,-237.40761
10.83,-236.79915
10.832,-235.64992
10.834,-233.9558
10.836,-232.85696
10.838,-232.8984
10.84,-234.14896
10.842,-235.66953
10.844,-236.98622
10.846,-237.04932
10.848,-235.1496
10.85,-230.89995
10.852,-225.5781
10.854,-220.43753
10.856,-216.63782
10.858,-214.37317
10.86,-213.98912
10.862,-214.64432
10.864,-215.13686
10.866,-214.04584
10.868,-211.47746
10.87,-207.84447
10.872,-204.12985
10.874,-201.08482
10.876,-200.04381
10.878,-201.1442
10.88,-203.62955
10.882,-205.70703
10.884,-206.45123
10.886,-205.04343
10.888,-201.62827
10.89,-196.93767
10.892,-193.217
10.894,-192.06903
10.896,-194.12349
10.898,-198.26115
10.9,-203.26836
10.902,-207.18324
10.904,-208.63272
10.906,-207.02899
10.908,-204.02347
10.91,-201.42194
10.912,-200.62762
10.914,-201.41446
10.916,-203.26189
10.918,-204.47852
10.92,-203.62955
10.922,-199.97078
10.924,-195.22922
10.926,-191.60675
10.928,-191.12158
10.93,-194.06476
10.932,-200.06543
10.934,-206.9396
10.936,-212.13495
10.938,-213.43211
10.94,-211.2209
10.942,-207.02147
10.944,-203.12923
10.946,-201.06367
10.948,-202.23575
10.95,-206.2394
10.952,-211.63463
10.954,-216.2416
10.956,-219.41188
10.958,-220.99733
10.96,-221.641
10.962,-221.8488
10.964,-222.97704
10.966,-225.46227
10.968,-229.14577
10.97,-232.98679
10.972,-236.8722
10.974,-240.45828
10.976,-243.655
10.978,-246.10382
10.98,-248.52165
10.982,-251.17686
10.984,-254.16168
10.986,-256.8831
10.988,-259.63882
10.99,-262.27356
10.992,-264.66837
10.994,-266.31772
10.996,-267.89044
10.998,-269.7402
11.0,-272.17316
11.002,-274.8278
11.004,-278.09668
11.006,-281.70325
11.008,-285.18143
11.01,-287.55142
11.012,-289.00876
11.014,-289.62134
11.016,-289.6843
11.018,-289.1167
11.02,-288.8293
11.022,-289.15503
11.024,-290.1846
11.026,-291.29688
11.028,-292.74326
11.03,-294.29507
11.032,-295.6881
11.034,-296.193
11.036,-296.18753
11.038,-295.77393
11.04,-295.18777
11.042,-294.25424
11.044,-293.7976
11.046,-293.99838
11.048,-294.68747
11.05,-294.89053
11.052,-294.60733
11.054,-293.62433
11.056,-292.18588
11.058,-290.51138
11.06,-290.1383
11.062,-291.85916
11.064,-295.6881
11.066,-300.17703
11.068,-304.3152
11.07,-306.59177
11.072,-306.1948
11.074,-302.9588
11.076,-298.92056
11.078,-296.02695
11.08,-295.6881
11.082,-297.5577
11.084,-301.08
11.086,-304.37958
11.088,-305.69446
11.09,-303.73572
11.092,-299.75278
11.094,-295.46463
11.096,-292.6862
11.098,-291.89005
11.1,-293.45102
11.102,-296.10602
11.104,-298.1897
11.106,-297.97592
11.108,-295.96594
11.11,-293.09766
11.112,-290.68494
11.114,-289.1637
11.116,-289.3414
11.118,-290.66504
11.12,-292.18588
11.122,-292.6394
11.124,-292.56412
11.126,-292.51923
11.128,-293.18652
11.13,-294.35345
11.132,-296.34906
11.134,-298.42398
11.136,-299.69064
11.138,-299.09958
11.14,-297.44476
11.142,-295.51538
11.144,-294.18716
11.146,-293.43323
11.148,-293.80548
11.15,-294.78967
11.152,-295.6881
11.154,-295.52036
11.156,-294.96945
11.158,-294.5266
11.16,-294.68747
11.162,-295.09747
11.164,-296.13968
11.166,-297.33597
11.168,-298.1897
11.17,-297.9817
11.172,-297.62488
11.174,-297.71353
11.176,-298.69
11.178,-300.00613
11.18,-301.7751
11.182,-303.2422
11.184,-303.6932
11.186,-302.31024
11.188,-300.0529
11.19,-297.74268
11.192,-296.18842
11.194,-295.27646
11.196,-295.4694
11.198,-296.1942
11.2,-296.68875
11.202,-295.898
11.204,-294.45758
11.206,-292.95978
11.208,-292.18588
11.21,-292.19513
11.212,-293.7259
11.214,-296.3603
11.216,-299.19034
11.218,-300.6493
11.22,-300.62823
11.222,-298.99963
11.224,-296.18842
11.226,-292.4965
11.228,-289.4977
11.23,-287.97437
11.232,-288.18332
11.234,-289.28094
11.236,-291.20724
11.238,-293.21582
11.24,-294.68747
11.242,-294.82523
11.244,-294.43268
11.246,-294.044
11.248,-294.18716
11.25,-294.60187
11.252,-295.8575
11.254,-297.59198
11.256,-299.19034
11.258,-299.49857
11.26,-298.81714
11.262,-297.24884
11.264,-295.18777
11.266,-292.65152
11.268,-290.79135
11.27,-289.96625
11.272,-290.1846
11.274,-290.63547
11.276,-291.556
11.278,-292.64554
11.28,-293.68683
11.282,-294.082
11.284,-294.44675
11.286,-294.83673
11.288,-295.18777
11.29,-294.84042
11.292,-294.2274
11.294,-293.31567
11.296,-292.18588
11.298,-290.5626
11.3,-289.44
11.302,-289.24292
11.304,-290.1846
11.306,-291.65042
11.308,-293.86505
11.31,-296.2641
11.312,-298.1897
11.314,-298.62512
11.316,-298.0915
11.318,-297.0279
11.32,-296.18842
11.322,-295.85428
11.324,-297.19513
11.326,-300.2242
11.328,-304.1935
11.33,-307.25766
11.332,-308.6393
11.334,-307.46005
11.336,-303.6932
11.338,-297.7617
11.34,-291.96393
11.342,-288.0833
11.344,-287.1827
11.346,-288.60437
11.348,-291.68805
11.35,-294.51166
11.352,-295.18777
11.354,-292.11118
11.356,-286.07684
11.358,-278.4608
11.36,-271.17252
11.362,-265.40323
11.364,-262.75882
11.366,-263.28873
11.368,-266.1693
11.37,-269.63376
11.372,-273.20352
11.374,-276.2709
11.376,-278.67728
11.378,-280.03717
11.38,-281.2636
11.382,-282.62473
11.384,-284.1808
11.386,-285.31268
11.388,-286.5247
11.39,-287.81152
11.392,-289.18396
11.394,-290.1792
11.396,-291.3427
11.398,-292.58127
11.4,-293.68683
11.402,-294.1423
11.404,-294.22983
11.406,-293.87796
11.408,-293.18652
11.41,-292.32123
11.412,-292.04642
11.414,-292.54367
11.416,-293.68683
11.418,-294.88104
11.42,-296.0107
11.422,-296.54208
11.424,-296.18842
11.426,-294.4024
11.428,-292.63672
11.43,-291.8784
11.432,-292.6862
11.434,-293.83643
11.436,-295.38156
11.438,-296.48798
11.44,-296.68875
11.442,-295.4723
11.444,-294.5352
11.446,-295.09116
11.448,-297.6894
11.45,-301.1477
11.452,-304.58838
11.454,-306.40372
11.456,-305.69446
11.458,-302.27084
11.46,-298.12656
11.462,-294.70782
11.464,-292.18588
11.466,-288.27597
11.468,-280.29147
11.47,-264.86163
11.472,-240.15277
11.474,-206.49504
11.476,-167.85648
11.478,-128.7111
11.48,-92.55888
11.482,-60.089104
11.484,-30.9398
11.486,-3.731513
11.488,21.013369
11.49,39.56788
11.492,43.44589
11.494,23.28234
11.496,-28.017824
11.498,-111.277405
11.5,-220.82027
11.502,-343.5875
11.504,-462.7944
11.506,-561.8289
11.508,-629.82446
11.51,-662.2498
11.512,-661.4208
11.514,-634.2
11.516,-590.8339
11.518,-540.74567
11.52,-491.31256
11.522,-446.75363
11.524,-409.87057
11.526,-381.00757
11.528,-359.22852
11.53,-342.47192
11.532,-329.5999
11.534,-319.169
11.536,-310.19733
11.538,-301.81277
11.54,-294.6855
11.542,-289.107
11.544,-285.18143
11.546,-282.20105
11.548,-280.1911
11.55,-278.52396
11.552,-276.67603
11.554,-274.01645
11.556,-271.20712
11.558,-268.6492
11.56,-266.66965
11.562,-265.03738
11.564,-263.94098
11.566,-263.21225
11.568,-262.66708
11.57,-261.9293
11.572,-261.20645
11.574,-260.73105
11.576,-260.66583
11.578,-260.65198
11.58,-260.6507
11.582,-260.396
11.584,-259.6652
11.586,-257.845
11.588,-255.82346
11.59,-253.84467
11.592,-252.16042
11.594,-250.33878
11.596,-249.44962
11.598,-249.22672
11.6,-249.15851
11.602,-248.23701
11.604,-247.01277
11.606,-245.45244
11.608,-243.655
11.61,-241.3717
11.612,-239.49844
11.614,-238.24316
11.616,-237.65118
11.618,-237.21254
11.62,-237.32632
11.622,-237.7534
11.624,-238.1515
11.626,-237.74734
11.628,-236.81595
11.63,-235.26396
11.632,-233.14832
11.634,-230.31306
11.636,-227.66896
11.638,-225.66876
11.64,-224.64291
11.642,-224.33804
11.644,-225.16037
11.646,-226.78226
11.648,-228.64546
11.65,-229.74384
11.652,-230.05281
11.654,-229.33292
11.656,-227.64482
11.658,-224.95467
11.66,-222.29422
11.662,-220.14088
11.664,-218.63908
11.666,-217.175
11.668,-215.76096
11.67,-213.96475
11.672,-211.63463
11.674,-208.6963
11.676,-206.31458
11.678,-205.20367
11.68,-205.63081
11.682,-206.80768
11.684,-208.30508
11.686,-209.11945
11.688,-208.63272
11.69,-206.60666
11.692,-204.40044
11.694,-203.17186
11.696,-203.62955
11.698,-205.17543
11.7,-207.24112
11.702,-208.42278
11.704,-207.63208
11.706,-204.30165
11.708,-199.80736
11.71,-195.65923
11.712,-193.12286
11.714,-192.15375
11.716,-192.53392
11.718,-192.937
11.72,-192.12222
11.722,-189.27876
11.724,-185.66913
11.726,-182.92506
11.728,-182.61618
11.73,-184.95503
11.732,-189.75288
11.734,-195.21815
11.736,-199.12668
11.738,-199.375
11.74,-196.13914
11.742,-190.64876
11.744,-185.11777
11.746,-181.40665
11.748,-181.54022
11.75,-185.70836
11.752,-192.62254
11.754,-199.57317
11.756,-204.77802
11.758,-206.83183
11.76,-205.63081
11.762,-201.9214
11.764,-198.24753
11.766,-196.73117
11.768,-198.62636
11.77,-203.36911
11.772,-210.09805
11.774,-216.82222
11.776,-221.641
11.778,-223.04034
11.78,-221.6727
11.782,-218.81274
11.784,-216.1375
11.786,-214.55153
11.788,-215.15913
11.79,-217.78065
11.792,-221.641
11.794,-225.40747
11.796,-229.02968
11.798,-232.52213
11.8,-236.15022
11.802,-239.64778
11.804,-243.36308
11.806,-246.89369
11.808,-249.65883
11.81,-250.79927
11.812,-250.8399
11.814,-250.46399
11.816,-250.65945
11.818,-251.88425
11.82,-255.12349
11.822,-260.30124
11.824,-266.66965
11.826,-272.60605
11.828,-277.43958
11.83,-280.4974
11.832,-281.6792
11.834,-280.9841
11.836,-279.71436
11.838,-278.7715
11.84,-278.67728
11.842,-278.9214
11.844,-279.49002
11.846,-279.74576
11.848,-279.1776
11.85,-277.23416
11.852,-274.8475
11.854,-272.88754
11.856,-272.17316
11.858,-272.62622
11.86,-274.58545
11.862,-277.4118
11.864,-280.17825
11.866,-281.57208
11.868,-281.69772
11.87,-280.7296
11.872,-279.1776
11.874,-277.14078
11.876,-275.56116
11.878,-274.62134
11.88,-274.1744
11.882,-273.42218
11.884,-272.67722
11.886,-272.0053
11.888,-271.67282
11.89,-271.5439
11.892,-272.48486
11.894,-274.61887
11.896,-277.67664
11.898,-280.5475
11.9,-283.06955
11.902,-284.70093
11.904,-285.18143
11.906,-284.12186
11.908,-282.59088
11.91,-281.2735
11.912,-280.67856
11.914,-280.4241
11.916,-280.88562
11.918,-281.6356
11.92,-282.1795
11.922,-281.6922
11.924,-280.82892
11.926,-280.00247
11.928,-279.67792
11.93,-279.62988
11.932,-280.47357
11.934,-281.97623
11.936,-283.68048
11.938,-284.60522
11.94,-285.09207
11.942,-285.21246
11.944,-285.18143
11.946,-284.7051
11.948,-284.53958
11.95,-284.7407
11.952,-285.18143
11.954,-285.13666
11.956,-285.07733
11.958,-285.0541
11.96,-285.18143
11.962,-285.07333
11.964,-285.43457
11.966,-286.33765
11.968,-287.683
11.97,-288.7245
11.972,-289.8143
11.974,-290.82562
11.976,-291.68555
11.978,-291.87167
11.98,-292.08624
11.982,-292.5032
11.984,-293.18652
11.986,-293.529
11.988,-293.98502
11.99,-294.4185
11.992,-294.68747
11.994,-294.20306
11.996,-293.64966
11.998,-293.25305
12.0,-293.18652
12.002,-292.98642
12.004,-293.18024
12.006,-293.64658
12.008,-294.18716
12.01,-294.1118
12.012,-293.9954
12.014,-293.97894
12.016,-294.18716
12.018,-294.13684
12.02,-294.36636
12.022,-294.77432
12.024,-295.18777
12.026,-294.93896
12.028,-294.61612
12.03,-294.33957
12.032,-294.18716
12.034,-293.62253
12.036,-293.1855
12.038,-292.8644
12.04,-292.6862
12.042,-292.2527
12.044,-292.41077
12.046,-293.3999
12.048,-295.18777
12.05,-296.89664
12.052,-298.57428
12.054,-299.74814
12.056,-300.19098
12.058,-299.5462
12.06,-298.9397
12.062,-298.93936
12.064,-299.69064
12.066,-300.19983
12.068,-300.23035
12.07,-298.99393
12.072,-296.18842
12.074,-291.78094
12.076,-287.65747
12.078,-285.31985
12.08,-285.68173
12.082,-288.02957
12.084,-291.75192
12.086,-295.13153
12.088,-296.68875
12.09,-295.35675
12.092,-292.46866
12.094,-289.58197
12.096,-288.18332
12.098,-288.39603
12.1,-290.38733
12.102,-292.9362
12.104,-294.68747
12.106,-294.40604
12.108,-293.03992
12.11,-291.7438
12.112,-291.68555
12.114,-292.78564
12.116,-295.11426
12.118,-297.3891
12.12,-298.1897
12.122,-296.19482
12.124,-292.39926
12.126,-288.1821
12.128,-285.18143
12.13,-283.99615
12.132,-285.4639
12.134,-288.9213
12.136,-293.18652
12.138,-296.64938
12.14,-299.441
12.142,-301.6852
12.144,-303.6932
12.146,-305.0469
12.148,-306.1131
12.15,-306.44696
12.152,-305.69446
12.154,-303.4643
12.156,-301.11456
12.158,-299.7493
12.16,-300.19098
12.162,-302.01883
12.164,-305.0265
12.166,-307.8772
12.168,-309.1967
12.17,-307.69052
12.172,-304.13892
12.174,-299.5516
12.176,-295.18777
12.178,-291.48825
12.18,-289.46033
12.182,-288.99393
12.184,-289.6843
12.186,-290.68134
12.188,-292.62714
12.19,-295.77927
12.192,-300.19098
12.194,-304.88278
12.196,-309.55142
12.198,-313.11337
12.2,-314.7002
12.202,-313.5413
12.204,-310.84393
12.206,-307.725
12.208,-305.19415
12.21,-303.14105
12.212,-301.91635
12.214,-300.8377
12.216,-299.19034
12.218,-296.15817
12.22,-292.76837
12.222,-289.87912
12.224,-288.18332
12.226,-287.19257
12.228,-286.88965
12.23,-286.21494
12.232,-284.1808
12.234,-279.90836
12.236,-274.6837
12.238,-269.93286
12.24,-267.16995
12.242,-266.81104
12.244,-269.55188
12.246,-274.61392
12.248,-280.67856
12.25,-285.90686
12.252,-290.20895
12.254,-293.53015
12.256,-296.18842
12.258,-298.00702
12.26,-299.7656
12.262,-301.40408
12.264,-302.69257
12.266,-303.07797
12.268,-303.17572
12.27,-303.28326
12.272,-303.6932
12.274,-304.30856
12.276,-305.38962
12.278,-306.50296
12.28,-307.19543
12.282,-307.15112
12.284,-306.93256
12.286,-306.85602
12.288,-307.19543
12.29,-307.6004
12.292,-308.5826
12.294,-309.9097
12.296,-311.19797
12.298,-311.1771
12.3,-310.65463
12.302,-310.01694
12.304,-309.69702
12.306,-309.04745
12.308,-308.86984
12.31,-309.02615
12.312,-309.1967
12.314,-308.41293
12.316,-307.3476
12.318,-306.41214
12.32,-306.1948
12.322,-306.63153
12.324,-308.52438
12.326,-311.55264
12.328,-314.7002
12.33,-315.8595
12.332,-313.9071
12.334,-307.35727
12.336,-295.18777
12.338,-276.48602
12.34,-252.16777
12.342,-223.05077
12.344,-190.12094
12.346,-153.81723
12.348,-115.74077
12.35,-77.08111
12.352,-39.525143
12.354,-5.2072954
12.356,21.249458
12.358,34.57595
12.36,29.018461
12.362,0.12216076
12.364,-55.36427
12.366,-136.24995
12.368,-236.65054
12.37,-345.87137
12.372,-451.77905
12.374,-541.63055
12.376,-605.38513
12.378,-637.34155
12.38,-638.7122
12.382,-615.153
12.384,-575.366
12.386,-528.1438
12.388,-481.93124
12.39,-441.79395
12.392,-409.76068
12.394,-385.00687
12.396,-366.6256
12.398,-352.86044
12.4,-342.2177
12.402,-333.14655
12.404,-325.6138
12.406,-319.2316
12.408,-313.69955
12.41,-308.33633
12.412,-303.77136
12.414,-300.17905
12.416,-297.6894
12.418,-295.7687
12.42,-294.8004
12.422,-294.42813
12.424,-294.18716
12.426,-293.24768
12.428,-291.91064
12.43,-290.31094
12.432,-288.68365
12.434,-286.89542
12.436,-285.3733
12.438,-284.2854
12.44,-283.68048
12.442,-283.1848
12.444,-282.8865
12.446,-282.85336
12.448,-283.18015
12.45,-283.45786
12.452,-284.15228
12.454,-285.14847
12.456,-286.18207
12.458,-286.25253
12.46,-286.00027
12.462,-285.16644
12.464,-283.68048
12.466,-281.16782
12.468,-279.0603
12.47,-277.73996
12.472,-277.17633
12.474,-276.39212
12.476,-275.4552
12.478,-273.78864
12.48,-271.17252
12.482,-267.49036
12.484,-264.29163
12.486,-262.63864
12.488,-263.16742
12.49,-265.27377
12.492,-268.67932
12.494,-272.07193
12.496,-274.1744
12.498,-273.826
12.5,-271.7603
12.502,-268.8518
12.504,-266.1693
12.506,-264.03607
12.508,-263.22195
12.51,-263.34885
12.512,-263.66772
12.514,-263.02808
12.516,-261.7218
12.518,-259.95767
12.52,-258.16425
12.522,-256.2636
12.524,-254.93924
12.526,-254.0311
12.528,-253.16106
12.53,-251.54605
12.532,-249.70624
12.534,-247.93881
12.536,-246.6569
12.538,-245.73618
12.54,-245.8011
12.542,-246.61484
12.544,-247.65755
12.546,-247.91635
12.548,-247.5705
12.55,-246.5797
12.552,-245.15596
12.554,-243.22708
12.556,-241.7923
12.558,-241.2276
12.56,-241.65373
12.562,-242.46126
12.564,-243.82747
12.566,-245.25558
12.568,-246.1566
12.57,-245.5736
12.572,-243.83939
12.574,-241.17705
12.576,-238.1515
12.578,-235.0714
12.58,-233.28946
12.582,-233.3308
12.584,-235.1496
12.586,-237.64078
12.588,-240.38501
12.59,-242.43634
12.592,-243.15468
12.594,-241.97823
12.596,-239.99234
12.598,-238.11292
12.6,-237.15086
12.602,-236.9538
12.604,-237.87358
12.606,-239.2461
12.608,-240.15277
12.61,-239.30782
12.612,-237.01334
12.614,-233.67752
12.616,-230.14641
12.618,-226.89499
12.62,-225.34003
12.622,-225.96382
12.624,-228.64546
12.626,-232.21799
12.628,-236.34119
12.63,-240.19044
12.632,-243.15468
12.634,-244.46037
12.636,-244.82199
12.638,-244.71968
12.64,-244.65564
12.642,-244.47891
12.644,-244.94876
12.646,-246.17998
12.648,-248.15787
12.65,-250.27504
12.652,-253.01201
12.654,-256.2536
12.656,-259.6652
12.658,-262.19223
12.66,-263.85492
12.662,-264.43835
12.664,-264.16806
12.666,-263.26096
12.668,-263.35608
12.67,-265.5155
12.672,-270.17188
12.674,-276.32303
12.676,-283.299
12.678,-289.64014
12.68,-294.18716
12.682,-296.06854
12.684,-296.44955
12.686,-296.60028
12.688,-297.6894
12.69,-299.67813
12.692,-302.7421
12.694,-305.93442
12.696,-308.19608
12.698,-308.4234
12.7,-307.38058
12.702,-305.97797
12.704,-305.19415
12.706,-305.02032
12.708,-305.82892
12.71,-306.9769
12.712,-307.69574
12.714,-307.07266
12.716,-305.95587
12.718,-305.2101
12.72,-305.69446
12.722,-307.22156
12.724,-309.97467
12.726,-313.0183
12.728,-315.20053
12.73,-315.1687
12.732,-313.43323
12.734,-310.74203
12.736,-308.19608
12.738,-306.2225
12.74,-305.88388
12.742,-307.08432
12.744,-309.1967
12.746,-310.86325
12.748,-312.06955
12.75,-312.64114
12.752,-312.6989
12.754,-311.95477
12.756,-311.27536
12.758,-310.85602
12.76,-310.69766
12.762,-310.12683
12.764,-309.7155
12.766,-309.54117
12.768,-309.69702
12.77,-309.66913
12.772,-310.123
12.774,-311.03055
12.776,-312.1986
12.778,-312.75623
12.78,-313.08893
12.782,-313.07687
12.784,-312.6989
12.786,-311.49677
12.788,-310.41687
12.79,-309.87946
12.792,-310.19733
12.794,-310.89795
12.796,-312.5243
12.798,-314.7889
12.8,-317.20178
12.802,-318.64218
12.804,-319.39365
12.806,-319.3759
12.808,-318.70276
12.81,-317.05566
12.812,-315.48984
12.814,-314.44263
12.816,-314.1999
12.818,-314.2688
12.82,-315.226
12.822,-316.84894
12.824,-318.70276
12.826,-319.68658
12.828,-320.07416
12.83,-319.822
12.832,-319.20306
12.834,-318.1743
12.836,-318.0779
12.838,-319.4313
12.84,-322.205
12.842,-325.17694
12.844,-327.98737
12.846,-329.68286
12.848,-329.70975
12.85,-327.6378
12.852,-324.95465
12.854,-322.84598
12.856,-322.205
12.858,-322.64963
12.86,-324.32498
12.862,-326.31595
12.864,-327.70847
12.866,-327.4749
12.868,-326.58765
12.87,-325.8972
12.872,-326.20752
12.874,-327.2372
12.876,-329.2915
12.878,-331.5791
12.88,-333.21198
12.882,-333.1122
12.884,-332.10992
12.886,-330.90823
12.888,-330.21005
12.89,-329.7183
12.892,-329.8525
12.894,-330.04047
12.896,-329.70975
12.898,-328.15182
12.9,-326.53702
12.902,-325.80536
12.904,-326.70782
12.906,-328.75354
12.908,-331.92288
12.91,-335.00885
12.912,-336.7142
12.914,-335.6643
12.916,-332.59595
12.918,-328.38925
12.92,-324.20624
12.922,-320.43176
12.924,-318.21667
12.926,-317.57776
12.928,-318.20242
12.93,-319.19873
12.932,-321.20245
12.934,-324.37445
12.936,-328.7091
12.938,-333.1945
12.94,-337.64508
12.942,-340.9856
12.944,-342.2177
12.946,-340.27194
12.948,-336.17227
12.95,-331.02295
12.952,-326.20752
12.954,-322.32315
12.956,-320.6804
12.958,-321.22034
12.96,-323.2056
12.962,-324.9932
12.964,-326.33472
12.966,-326.749
12.968,-326.20752
12.97,-324.49753
12.972,-322.89944
12.974,-322.0293
12.976,-322.205
12.978,-322.78247
12.98,-324.08688
12.982,-325.60107
12.984,-326.70782
12.986,-326.31067
12.988,-324.89816
12.99,-322.69742
12.992,-320.2037
12.994,-317.4701
12.996,-315.82596
12.998,-315.7268
13.0,-317.20178
13.002,-319.2938
13.004,-322.05548
13.006,-324.86716
13.008,-327.20816
13.01,-328.2496
13.012,-328.71918
13.014,-328.9395
13.016,-329.20944
13.018,-329.0894
13.02,-329.23608
13.022,-329.52197
13.024,-329.70975
13.026,-328.99393
13.028,-328.01675
13.03,-326.8881
13.032,-325.7072
13.034,-323.93195
13.036,-322.24115
13.038,-320.66122
13.04,-319.20306
13.042,-317.3733
13.044,-316.0672
13.046,-315.61142
13.048,-316.20114
13.05,-317.2287
13.052,-319.10873
13.054,-321.44016
13.056,-323.70593
13.058,-324.90976
13.06,-325.49118
13.062,-325.5249
13.064,-325.20688
13.066,-324.21387
13.068,-323.36996
13.07,-322.7434
13.072,-322.205
13.074,-320.98834
13.076,-319.564
13.078,-317.92905
13.08,-316.20114
13.082,-314.0785
13.084,-312.56967
13.086,-312.05203
13.088,-312.6989
13.09,-313.8609
13.092,-315.92944
13.094,-318.5304
13.096,-321.20435
13.098,-322.97086
13.1,-324.2572
13.102,-325.0077
13.104,-325.20688
13.106,-324.28162
13.108,-322.99374
13.11,-321.5522
13.112,-320.2037
13.114,-318.65225
13.116,-317.84445
13.118,-317.93027
13.12,-318.70276
13.122,-319.03812
13.124,-318.85806
13.126,-317.53128
13.128,-314.7002
13.13,-309.91357
13.132,-304.45605
13.134,-299.27457
13.136,-295.18777
13.138,-292.0337
13.14,-290.39462
13.142,-289.82416
13.144,-289.6843
13.146,-288.92004
13.148,-288.13342
13.15,-287.7095
13.152,-288.18332
13.154,-289.40512
13.156,-292.14438
13.158,-296.12878
13.16,-300.69128
13.162,-304.46194
13.164,-307.43677
13.166,-309.33386
13.168,-310.19733
13.17,-309.8301
13.172,-309.36893
13.174,-309.36768
13.176,-310.19733
13.178,-311.6109
13.18,-313.94583
13.182,-316.70764
13.184,-319.20306
13.186,-320.56808
13.188,-320.77444
13.19,-319.60825
13.192,-317.20178
13.194,-313.86243
13.196,-310.7663
13.198,-308.57944
13.2,-307.69574
13.202,-307.55133
13.204,-308.69556
13.206,-310.78888
13.208,-313.19925
13.21,-314.1881
13.212,-314.07446
13.214,-312.8979
13.216,-311.19797
13.218,-309.0452
13.22,-308.16388
13.222,-309.14963
13.224,-311.6983
13.226,-313.9589
13.228,-315.0597
13.23,-313.96146
13.232,-310.69766
13.234,-305.96997
13.236,-302.41257
13.238,-301.65652
13.24,-303.6932
13.242,-305.81186
13.244,-304.855
13.246,-296.84186
13.248,-279.1776
13.25,-251.28952
13.252,-216.36263
13.254,-178.4127
13.256,-141.08975
13.258,-105.82989
13.26,-73.338425
13.262,-42.950493
13.264,-15.009548
13.266,8.061471
13.268,19.702995
13.27,12.348403
13.272,-20.51305
13.274,-81.02117
13.276,-166.85301
13.278,-269.4214
13.28,-376.23935
13.282,-473.4319
13.284,-550.51263
13.286,-600.84235
13.288,-622.89624
13.29,-619.13153
13.292,-596.1373
13.294,-561.10376
13.296,-520.83136
13.298,-480.26004
13.3,-443.698
13.302,-413.0778
13.304,-388.7473
13.306,-369.42938
13.308,-354.4204
13.31,-342.37384
13.312,-332.21133
13.314,-322.81836
13.316,-314.64767
13.318,-307.77927
13.32,-302.19223
13.322,-297.15005
13.324,-292.85812
13.326,-288.94614
13.328,-285.18143
13.33,-281.1421
13.332,-277.74045
13.334,-275.4736
13.336,-274.67474
13.338,-274.96957
13.34,-276.43027
13.342,-278.55023
13.344,-280.67856
13.346,-281.8905
13.348,-282.042
13.35,-281.1957
13.352,-279.67792
13.354,-277.5967
13.356,-275.60065
13.358,-274.07492
13.36,-273.17377
13.362,-272.26215
13.364,-271.73636
13.366,-271.285
13.368,-270.67218
13.37,-269.22272
13.372,-268.08487
13.374,-267.4016
13.376,-267.16995
13.378,-266.70514
13.38,-266.71436
13.382,-266.96613
13.384,-267.16995
13.386,-266.6233
13.388,-265.97748
13.39,-265.30942
13.392,-264.66837
13.394,-263.58032
13.396,-262.61465
13.398,-261.6893
13.4,-260.66583
13.402,-258.99203
13.404,-257.26596
13.406,-255.61894
13.408,-254.16168
13.41,-252.50534
13.412,-251.18468
13.414,-250.12294
13.416,-249.15851
13.418,-247.7225
13.42,-246.3564
13.422,-245.24884
13.424,-244.65564
13.426,-244.38326
13.428,-245.09119
13.43,-246.66614
13.432,-248.65819
13.434,-249.96684
13.436,-250.45938
13.438,-249.71144
13.44,-247.65755
13.442,-244.24153
13.444,-240.70471
13.446,-237.84096
13.448,-236.15022
13.45,-235.23744
13.452,-235.20892
13.454,-235.40161
13.456,-235.1496
13.458,-233.67664
13.46,-231.63974
13.462,-229.58594
13.464,-228.14514
13.466,-227.32509
13.468,-227.72075
13.47,-229.0273
13.472,-230.64673
13.474,-231.52719
13.476,-231.8127
13.478,-231.46268
13.48,-230.64673
13.482,-229.18742
13.484,-227.85777
13.486,-226.83398
13.488,-226.14386
13.49,-225.2905
13.492,-224.76797
13.494,-224.58089
13.496,-224.64291
13.498,-224.3065
13.5,-223.86607
13.502,-223.1657
13.504,-222.14131
13.506,-220.44156
13.508,-218.89
13.51,-217.881
13.512,-217.63846
13.514,-217.62595
13.516,-218.10097
13.518,-218.71423
13.52,-219.1394
13.522,-218.75093
13.524,-218.2303
13.526,-217.93106
13.528,-218.13878
13.53,-218.43938
13.532,-219.20927
13.534,-220.20207
13.536,-221.14069
13.538,-221.39282
13.54,-221.60025
13.542,-222.09193
13.544,-223.14195
13.546,-224.31602
13.548,-225.97833
13.55,-227.85953
13.552,-229.64609
13.554,-230.6669
13.556,-231.57013
13.558,-232.76016
13.56,-234.64928
13.562,-236.9476
13.564,-240.1264
13.566,-243.87646
13.568,-247.65755
13.57,-250.40811
13.572,-252.32332
13.574,-253.4638
13.576,-254.16168
13.578,-254.40363
13.58,-255.24219
13.582,-257.11896
13.584,-260.1655
13.586,-263.68658
13.588,-267.76968
13.59,-271.93176
13.592,-275.67538
13.594,-278.1313
13.596,-279.6686
13.598,-280.4312
13.6,-280.67856
13.602,-280.201
13.604,-279.83255
13.606,-279.91382
13.608,-280.67856
13.61,-281.7406
13.612,-283.61288
13.614,-286.19833
13.616,-289.18396
13.618,-291.6053
13.62,-293.52066
13.622,-294.70435
13.624,-295.18777
13.626,-294.78018
13.628,-294.55713
13.63,-295.10672
13.632,-296.68875
13.634,-298.58606
13.636,-300.7345
13.638,-302.45163
13.64,-303.19287
13.642,-302.3146
13.644,-300.75552
13.646,-299.30692
13.648,-298.69
13.65,-298.68872
13.652,-299.63782
13.654,-300.91327
13.656,-301.69193
13.658,-300.8174
13.66,-298.7355
13.662,-295.92764
13.664,-293.18652
13.666,-290.78033
13.668,-289.88226
13.67,-290.7493
13.672,-293.18652
13.674,-296.12067
13.676,-299.46588
13.678,-302.54773
13.68,-304.69385
13.682,-304.81488
13.684,-303.28278
13.686,-300.34726
13.688,-296.68875
13.69,-292.79355
13.692,-290.41754
13.694,-290.47775
13.696,-293.18652
13.698,-297.35077
13.7,-302.28973
13.702,-306.49634
13.704,-308.69638
13.706,-307.777
13.708,-304.7651
13.71,-300.89755
13.712,-297.6894
13.714,-295.8306
13.716,-296.52228
13.718,-299.49954
13.72,-303.6932
13.722,-307.10938
13.724,-309.14758
13.726,-309.26242
13.728,-307.69574
13.73,-304.8315
13.732,-302.57382
13.734,-302.0514
13.736,-303.6932
13.738,-306.51816
13.74,-310.08163
13.742,-313.13858
13.744,-314.7002
13.746,-313.89154
13.748,-311.79248
13.75,-309.40576
13.752,-307.69574
13.754,-306.61667
13.756,-306.7047
13.758,-307.45276
13.76,-308.19608
13.762,-307.97125
13.764,-307.48444
13.766,-307.22928
13.768,-307.69574
13.77,-308.50623
13.772,-310.00427
13.774,-311.61703
13.776,-312.6989
13.778,-312.37033
13.78,-311.42383
13.782,-310.48624
13.784,-310.19733
13.786,-310.3131
13.788,-311.27557
13.79,-312.49628
13.792,-313.19925
13.794,-312.29254
13.796,-310.35666
13.798,-307.911
13.8,-305.69446
13.802,-303.80298
13.804,-303.1534
13.806,-303.62354
13.808,-304.69385
13.81,-305.18307
13.812,-305.3069
13.814,-305.05038
13.816,-304.69385
13.818,-304.1287
13.82,-304.38773
13.822,-305.65585
13.824,-307.69574
13.826,-309.3769
13.828,-310.65207
13.83,-311.00317
13.832,-310.19733
13.834,-307.862
13.836,-305.1526
13.838,-302.76343
13.84,-301.19162
13.842,-300.02994
13.844,-299.68295
13.846,-299.72934
13.848,-299.69064
13.85,-298.74432
13.852,-297.58932
13.854,-296.60666
13.856,-296.18842
13.858,-295.98773
13.86,-296.53342
13.862,-297.45532
13.864,-298.1897
13.866,-297.7105
13.868,-296.49484
13.87,-294.81595
13.872,-293.18652
13.874,-291.6376
13.876,-291.24368
13.878,-292.17285
13.88,-294.18716
13.882,-296.2183
13.884,-298.3192
13.886,-300.06284
13.888,-301.19162
13.89,-301.13577
13.892,-300.68634
13.894,-300.13596
13.896,-299.69064
13.898,-298.8817
13.9,-298.28387
13.902,-297.78647
13.904,-297.18906
13.906,-295.79138
13.908,-294.18472
13.91,-292.55392
13.912,-291.18524
13.914,-289.8942
13.916,-289.55518
13.918,-290.24222
13.92,-291.68555
13.922,-292.86215
13.924,-293.78806
13.926,-294.08716
13.928,-293.68683
13.93,-292.37952
13.932,-291.3198
13.934,-291.04318
13.936,-291.68555
13.938,-292.36572
13.94,-293.02216
13.942,-293.04742
13.944,-292.18588
13.946,-290.23114
13.948,-288.65985
13.95,-288.4723
13.952,-290.1846
13.954,-292.96185
13.956,-296.34683
13.958,-298.96814
13.96,-299.69064
13.962,-297.65494
13.964,-294.1393
13.966,-290.52957
13.968,-288.18332
13.97,-287.27036
13.972,-288.18314
13.974,-289.93124
13.976,-291.18524
13.978,-290.37863
13.98,-287.87088
13.982,-284.1868
13.984,-280.17825
13.986,-276.032
13.988,-272.63098
13.99,-269.81512
13.992,-267.16995
13.994,-263.89957
13.996,-260.79837
13.998,-258.49384
14.0,-257.6639
14.002,-258.1801
14.004,-260.5505
14.006,-264.2844
14.008,-268.67093
14.01,-272.60736
14.012,-276.49988
14.014,-280.48438
14.016,-284.6811
14.018,-288.451
14.02,-291.92123
14.022,-294.4968
14.024,-295.6881
14.026,-295.07394
14.028,-293.53867
14.03,-291.7276
14.032,-290.1846
14.034,-288.98373
14.036,-288.32413
14.038,-287.80087
14.04,-287.1827
14.042,-286.67285
14.044,-287.2046
14.046,-289.24088
14.048,-292.6862
14.05,-296.3
14.052,-299.3894
14.054,-300.74747
14.056,-299.69064
14.058,-295.55026
14.06,-290.48602
14.062,-286.48984
14.064,-285.18143
14.066,-286.16037
14.068,-289.36914
14.07,-293.05765
14.072,-295.18777
14.074,-293.7119
14.076,-289.24142
14.078,-283.27435
14.08,-278.17697
14.082,-275.65585
14.084,-277.48273
14.086,-283.12527
14.088,-290.1846
14.09,-294.5479
14.092,-293.15488
14.094,-283.55765
14.096,-265.1687
14.098,-238.81213
14.1,-207.62697
14.102,-174.22838
14.104,-140.08913
14.106,-104.587234
14.108,-67.09955
14.11,-26.641905
14.112,16.010185
14.114,57.595966
14.116,90.67114
14.118,106.45058
14.12,96.56143
14.122,56.05078
14.124,-16.2289
14.126,-115.27117
14.128,-231.14705
14.13,-350.4833
14.132,-460.56067
14.134,-550.0777
14.136,-611.3889
14.138,-640.89307
14.14,-640.5897
14.142,-615.68634
14.144,-573.86505
14.146,-523.3236
14.148,-472.7645
14.15,-428.43842
14.152,-393.7505
14.154,-368.6374
14.156,-351.7117
14.158,-339.7888
14.16,-329.70975
14.162,-318.96255
14.164,-307.6259
14.166,-296.56924
14.168,-287.1827
14.17,-280.09454
14.172,-276.11887
14.174,-274.58298
14.176,-274.1744
14.178,-273.1107
14.18,-271.1073
14.182,-268.11743
14.184,-264.66837
14.186,-261.17432
14.188,-258.68134
14.19,-257.55206
14.192,-257.6639
14.194,-258.26178
14.196,-258.92062
14.198,-259.27377
14.2,-259.16486
14.202,-258.39087
14.204,-257.16257
14.206,-255.81728
14.208,-254.662
14.21,-253.4666
14.212,-252.70499
14.214,-252.31161
14.216,-252.16042
14.218,-251.53539
14.22,-251.29231
14.222,-251.25189
14.224,-251.15977
14.226,-250.24832
14.228,-249.33336
14.23,-248.33525
14.232,-247.15723
14.234,-245.31453
14.236,-243.60635
14.238,-242.19658
14.24,-241.15341
14.242,-240.01158
14.244,-239.23927
14.246,-238.67697
14.248,-238.1515
14.25,-237.1821
14.252,-236.3349
14.254,-235.67982
14.256,-235.1496
14.258,-234.11783
14.26,-232.80473
14.262,-230.9931
14.264,-228.64546
14.266,-225.6347
14.268,-222.93326
14.27,-221.03607
14.272,-220.14005
14.274,-219.65712
14.276,-219.50006
14.278,-218.99768
14.28,-217.63846
14.282,-214.9727
14.284,-211.88913
14.286,-209.08035
14.288,-207.13177
14.29,-205.886
14.292,-205.5878
14.294,-205.70007
14.296,-205.63081
14.298,-204.70311
14.3,-203.54431
14.302,-202.67438
14.304,-202.6289
14.306,-203.27553
14.308,-204.84119
14.31,-206.61687
